vertex_index,hemisphere,x_mm,y_mm,z_mm
0,L,-36.7855,-18.6004,64.8213
1,L,-16.1729,-66.8947,59.4082
2,L,-11.6052,-8.8997,47.8828
3,L,-22.4161,42.8069,23.5589
4,L,-57.1031,-0.0804,10.1244
5,L,-50.0775,-48.9127,44.8987
6,L,-36.3380,-85.4009,-2.1784
7,L,-20.9520,-61.9603,8.0596
8,L,-3.6043,9.3866,-3.5403
9,L,-26.4443,23.3752,-6.3651
10,L,-53.4722,-22.4869,-4.5171
11,L,-35.5467,-23.4951,-23.1196
12,L,-52.9709,-6.0253,38.7083
13,L,-37.5867,24.3366,24.5615
14,L,-30.6160,9.8267,54.1530
15,L,-47.8372,-27.1695,53.3749
16,L,-57.9281,-26.5213,26.6017
17,L,-21.1344,-34.6191,69.1289
18,L,-27.7145,-51.3579,39.5655
19,L,-11.7235,-11.0716,68.3151
20,L,-16.0336,-45.6496,55.4908
21,L,-6.5298,34.7017,49.9477
22,L,-11.6681,53.8933,1.2929
23,L,-5.7685,16.6870,23.4347
24,L,-38.4547,50.7197,-4.8151
25,L,-14.3698,27.2391,-21.4726
26,L,-37.6178,15.9840,9.2967
27,L,-32.6872,-32.0632,17.4368
28,L,-48.4247,-9.0433,-10.7488
29,L,-61.8788,-48.1490,15.6939
30,L,-41.5239,-67.8861,27.3744
31,L,-59.6272,-55.7683,-1.6360
32,L,-23.8036,-78.7042,16.9990
33,L,-11.7366,-67.4951,34.8727
34,L,-13.0076,-92.7188,3.0527
35,L,-4.0290,-33.3918,30.6951
36,L,-7.8701,-30.8062,8.6013
37,L,-26.8121,6.1372,-35.8814
38,L,-35.0736,-24.9449,-10.8156
39,L,-53.7152,-18.2922,-26.5739
40,L,-42.7068,-64.5336,-18.8994
41,L,-18.8404,-57.9693,-6.5000
42,L,-41.2901,-11.8388,48.5774
43,L,-40.6128,3.4910,47.6948
44,L,-29.1996,-8.8447,45.3580
45,L,-39.0324,-27.1704,49.5768
46,L,-42.2440,-22.3576,39.2100
47,L,-21.7580,-29.4547,52.5178
48,L,-36.6907,-33.4162,64.6622
49,L,-23.5741,-16.9257,65.2177
50,L,-10.6224,-29.8766,66.3333
51,L,-19.2513,0.0553,56.3523
52,L,-14.5657,60.7979,12.0849
53,L,-8.6613,50.6800,25.0775
54,L,-15.0879,46.5746,38.6982
55,L,-30.4117,47.6919,9.8648
56,L,-16.4484,58.9634,-5.4580
57,L,-39.1762,37.0062,28.9252
58,L,-34.5811,36.6335,11.7697
59,L,-47.6263,-13.7524,17.8103
60,L,-35.9772,-9.6843,16.8708
61,L,-48.9165,7.1885,0.9848
62,L,-62.9002,-14.7377,18.3389
63,L,-49.2782,-28.4472,18.8180
64,L,-50.3363,-61.9447,36.3004
65,L,-44.1553,-54.0186,21.9689
66,L,-55.7834,-50.9194,30.8439
67,L,-40.1145,-50.3686,35.3568
68,L,-38.4989,-67.4086,46.3946
69,L,-7.3082,-73.3464,46.6864
70,L,-16.8196,-86.6270,36.6112
71,L,-18.6589,-68.2416,38.4091
72,L,-8.8564,-55.3657,59.8988
73,L,-9.6576,-54.8012,44.7856
74,L,-8.1940,5.4162,37.0575
75,L,-6.4303,-9.6324,31.3111
76,L,-7.9578,-20.0756,38.9171
77,L,-4.3756,21.2747,-22.2555
78,L,-15.1050,-3.6084,-13.0373
79,L,-5.6662,-16.8851,-20.0223
80,L,-36.0915,-2.9300,-6.4928
81,L,-43.8485,12.5655,-25.5757
82,L,-34.3818,4.4719,-15.2679
83,L,-53.6193,-39.2178,-7.1769
84,L,-58.9993,-37.8381,-16.1809
85,L,-58.8555,-18.9457,-15.9830
86,L,-20.2061,-100.1533,-7.8900
87,L,-18.5521,-89.2360,-7.3439
88,L,-42.3752,-81.9278,-13.3468
89,L,-9.7957,-46.7597,6.5006
90,L,-14.7507,-40.8012,-2.3860
91,L,-15.1257,-63.9021,0.7065
92,L,-58.5580,1.4662,26.0876
93,L,-43.1351,6.9000,17.7892
94,L,-36.4899,0.8029,30.9822
95,L,-39.5504,22.8393,39.5049
96,L,-25.7589,27.4450,33.3049
97,L,-40.1310,-34.4968,35.5994
98,L,-57.5491,-33.8806,40.2728
99,L,-50.0924,-23.6343,37.3830
100,L,-55.9898,-11.8400,31.0502
101,L,-20.3119,-51.6863,58.4297
102,L,-25.3190,-58.3147,53.1310
103,L,-32.2351,-47.2633,57.8391
104,L,-31.2007,-40.5301,44.3059
105,L,-9.1016,-10.8682,57.4065
106,L,-13.6585,-28.4566,46.7674
107,L,-5.4027,-29.0190,62.2256
108,L,-14.4771,-41.6187,72.1292
109,L,-22.2908,25.3395,52.2856
110,L,-10.9885,10.6903,62.4344
111,L,-9.7977,11.3496,50.4604
112,L,-5.9833,35.8189,-8.3644
113,L,-1.0793,18.4771,8.6438
114,L,-7.0598,39.1540,12.2906
115,L,-11.6402,25.5755,32.9202
116,L,-45.3231,32.1828,-14.9493
117,L,-29.8445,22.7793,-20.5192
118,L,-23.0270,42.6059,-11.2143
119,L,-3.7494,48.2729,-22.5417
120,L,-53.8761,21.5098,16.5862
121,L,-49.4298,30.7445,-1.7855
122,L,-28.2740,26.4060,7.5280
123,L,-53.5565,-23.0886,0.2414
124,L,-59.1201,-6.9769,-2.5534
125,L,-41.7657,-25.2049,1.7401
126,L,-36.8107,-5.4859,6.3200
127,L,-51.6768,-40.7305,30.2514
128,L,-48.2768,-39.0371,11.8548
129,L,-62.5307,-33.9423,4.6471
130,L,-44.3913,-75.9481,14.7873
131,L,-40.2136,-68.2400,-0.2889
132,L,-44.8904,-63.6805,10.1384
133,L,-48.5579,-48.1481,4.3033
134,L,-27.6586,-64.7566,37.2920
135,L,-36.2442,-83.4235,26.5651
136,L,-29.2701,-92.9658,9.6747
137,L,-20.4920,-61.9815,22.1374
138,L,-13.8718,-79.5677,11.8554
139,L,-3.9185,-76.2380,21.0265
140,L,-12.0826,-97.4378,13.9135
141,L,-9.9240,-39.2861,42.4042
142,L,-11.9181,-55.8569,29.6366
143,L,-5.2638,-50.5931,18.5833
144,L,-2.1012,-14.6096,0.6307
145,L,-0.9105,-7.5199,16.2473
146,L,0.0188,-35.7081,21.8619
147,L,-25.0749,3.9861,-12.9622
148,L,-34.1571,-13.0648,-25.6912
149,L,-31.4846,-4.7882,-33.7333
150,L,-22.0538,-22.1473,-22.1580
151,L,-49.4806,-0.0130,-26.3891
152,L,-38.9925,-0.4633,-39.1449
153,L,-45.0717,-18.1246,-30.8895
154,L,-47.7117,-58.5520,-7.8243
155,L,-48.9576,-41.3850,-23.8890
156,L,-35.5824,-43.8685,-21.8529
157,L,-6.5598,-80.1364,-1.7294
158,L,-27.5597,-66.1256,-5.1942
159,L,-35.2777,-41.3659,-10.7258
160,L,-20.1277,-32.1906,-5.9663
161,L,-24.2950,-34.3524,-12.4969
162,L,-39.7128,-12.7340,57.4942
163,L,-39.5414,-7.5031,51.2290
164,L,-34.8409,-11.1107,57.9426
165,L,-34.9462,-24.5956,50.7543
166,L,-32.7854,-19.2918,47.5345
167,L,-28.4665,-23.4545,56.9173
168,L,-29.8192,-29.6904,49.7256
169,L,-31.3256,-16.4334,67.6836
170,L,-23.9514,-22.8028,64.6140
171,L,-26.3506,-13.8866,54.6892
172,L,-23.0950,55.4908,21.8760
173,L,-13.4815,53.4910,24.6666
174,L,-21.7804,47.1525,32.8288
175,L,-26.8062,46.6278,16.1816
176,L,-24.0560,54.5539,9.8977
177,L,-30.0156,35.6964,22.4919
178,L,-35.9693,45.7565,19.1391
179,L,-53.6493,-6.9873,9.4488
180,L,-48.3975,-4.0523,8.2686
181,L,-55.9523,3.9559,3.4476
182,L,-61.9385,-8.6739,10.8131
183,L,-56.0403,-15.5225,14.6715
184,L,-50.0413,-54.4436,40.7197
185,L,-48.1058,-54.1086,31.5326
186,L,-52.0782,-48.3602,38.2357
187,L,-45.4480,-50.4687,40.5719
188,L,-46.6674,-57.5264,40.7925
189,L,-10.1056,-70.5136,53.3122
190,L,-14.6557,-74.4284,45.6230
191,L,-15.8665,-66.4905,48.3849
192,L,-13.7573,-60.2657,59.6020
193,L,-9.6881,-63.2819,54.8133
194,L,-11.7807,-1.8476,41.6903
195,L,-6.6146,-7.2508,40.9062
196,L,-13.2004,-13.1526,40.8556
197,L,-6.5769,16.7992,-10.4350
198,L,-6.1151,1.4453,-11.4698
199,L,-2.1941,-6.4690,-10.3390
200,L,-34.8659,13.3434,-3.4713
201,L,-36.7855,1.8016,-11.0768
202,L,-30.4177,14.5125,-8.3841
203,L,-46.7032,-30.7766,-7.1037
204,L,-55.0873,-28.3910,-12.3611
205,L,-49.3058,-21.2614,-13.0420
206,L,-28.2462,-95.3521,-4.9701
207,L,-28.7433,-93.8120,-14.7153
208,L,-39.6547,-87.3559,-7.7865
209,L,-14.9331,-54.5493,8.2088
210,L,-21.9970,-53.9994,2.8006
211,L,-26.1414,-65.3495,2.9888
212,L,-56.9638,-1.4520,33.5489
213,L,-49.7929,2.5883,28.9396
214,L,-47.6383,-2.1537,35.2787
215,L,-37.6030,5.6634,55.3812
216,L,-42.2423,14.0965,45.5933
217,L,-35.3380,20.5709,49.4875
218,L,-32.0135,28.0569,40.6501
219,L,-29.1565,17.0675,42.0178
220,L,-40.8920,-29.2140,41.9653
221,L,-43.9910,-28.0052,34.1894
222,L,-49.6959,-24.5998,46.0539
223,L,-39.6908,-13.5216,33.8138
224,L,-48.5798,-17.4325,34.4166
225,L,-45.5358,-8.7784,27.2541
226,L,-51.2734,-8.4459,21.3008
227,L,-20.5192,-43.7192,61.6695
228,L,-27.3816,-48.5209,61.6895
229,L,-22.5210,-40.9560,55.2337
230,L,-43.8857,-31.2612,58.5856
231,L,-36.2574,-36.5599,53.8891
232,L,-37.9444,-33.6405,46.3706
233,L,-33.2393,-36.4514,37.3390
234,L,-9.2455,-9.6837,64.9473
235,L,-6.9891,-19.4805,62.2745
236,L,-5.9505,-18.0648,70.0448
237,L,-14.7971,-34.9983,66.0792
238,L,-7.4093,-39.0133,71.0102
239,L,-15.1836,-38.0167,73.7745
240,L,-17.8608,-47.9017,69.1819
241,L,-20.7625,22.9051,38.9805
242,L,-24.3423,12.9494,44.8781
243,L,-19.2703,-5.7840,64.7828
244,L,-19.9195,7.4331,64.2483
245,L,-13.6226,-0.2831,68.7711
246,L,-7.0517,0.1994,65.9640
247,L,-12.3848,43.3645,-3.1046
248,L,-6.4857,39.8483,0.6213
249,L,-11.4765,44.3836,5.0583
250,L,-6.9346,43.8978,37.9097
251,L,-6.8324,37.8271,28.4750
252,L,-7.5524,29.4103,39.5233
253,L,-10.1205,17.8506,41.7878
254,L,-7.8938,22.6079,49.8090
255,L,-43.3924,43.1706,-13.2081
256,L,-34.4720,37.7581,-8.7838
257,L,-32.4232,50.2187,-11.2421
258,L,-7.2275,64.7888,-3.9208
259,L,-6.2457,59.7389,-17.4011
260,L,-6.5348,51.1704,-9.1864
261,L,-9.6143,40.2974,-13.0863
262,L,-37.1524,14.8753,22.5228
263,L,-49.1661,14.2073,21.7318
264,L,-43.0931,21.1594,19.1492
265,L,-40.2878,44.8064,3.2965
266,L,-45.0663,35.2249,4.7812
267,L,-43.7588,37.6248,-4.4500
268,L,-47.1740,34.0582,-8.4661
269,L,-41.7254,-30.1467,6.3608
270,L,-49.2346,-22.1521,6.5295
271,L,-36.3443,-28.0318,9.5657
272,L,-37.9020,3.1508,13.5302
273,L,-34.2096,-8.0422,11.6038
274,L,-32.3177,7.9345,12.9441
275,L,-30.4046,10.9560,8.1759
276,L,-32.9123,21.7310,12.0896
277,L,-60.3458,-30.0985,32.9993
278,L,-57.4208,-37.5178,34.9232
279,L,-61.4256,-32.8461,26.2953
280,L,-40.0858,-30.6426,21.9367
281,L,-40.8946,-36.8429,20.3383
282,L,-38.7320,-37.1481,10.4306
283,L,-49.1646,-31.8474,4.8229
284,L,-43.3427,-70.4587,22.1726
285,L,-41.5511,-70.4085,11.8129
286,L,-41.6630,-65.3685,17.7661
287,L,-53.6244,-52.9043,18.3700
288,L,-43.6423,-49.6848,12.9240
289,L,-54.1787,-45.4237,10.8395
290,L,-52.2870,-40.3034,4.6766
291,L,-63.5744,-40.5605,9.3288
292,L,-27.2114,-54.7327,47.9847
293,L,-27.4138,-61.8665,45.6182
294,L,-28.7826,-59.3941,39.9972
295,L,-39.3743,-70.1773,38.1324
296,L,-34.0301,-78.1698,39.2714
297,L,-42.2658,-74.9632,30.2608
298,L,-42.1922,-79.2166,21.2581
299,L,-16.5995,-63.8373,28.9583
300,L,-15.3236,-72.5031,16.4528
301,L,-15.2335,-76.7659,23.5667
302,L,-21.5443,-86.2119,25.8683
303,L,-10.3851,-90.5203,27.8689
304,L,-16.5787,-91.5519,17.9993
305,L,-21.7734,-97.9611,13.4875
306,L,-25.6465,-86.8545,13.1309
307,L,-15.8592,-37.0386,50.5847
308,L,-18.4933,-35.5632,40.6128
309,L,-14.7667,-44.5272,46.2060
310,L,-6.4411,-64.5236,38.9880
311,L,-9.3429,-55.1643,36.8223
312,L,-3.8191,-66.5215,30.1781
313,L,-4.9807,-65.4493,23.1942
314,L,-0.6137,19.2480,17.0180
315,L,-0.8431,4.6413,12.9097
316,L,-0.6361,5.8041,21.5860
317,L,-6.7751,-22.6260,31.2917
318,L,-3.4270,-22.4073,27.4173
319,L,-8.3528,-34.5385,27.3623
320,L,-7.0614,-43.5471,21.3000
321,L,-4.7488,-43.0560,27.3925
322,L,-19.3464,24.2207,-17.0674
323,L,-23.7879,14.0834,-21.9124
324,L,-16.5081,13.7378,-21.6517
325,L,-22.1272,-16.3407,-12.1560
326,L,-28.5222,-11.6786,-13.6033
327,L,-38.8266,-19.1976,-17.9421
328,L,-28.1259,-18.9074,-25.8305
329,L,-35.8699,-26.8489,-17.8911
330,L,-55.9866,-1.5950,-4.4258
331,L,-52.1583,-3.3300,-14.8684
332,L,-55.0942,7.2749,-11.9112
333,L,-35.0104,13.2636,-34.4220
334,L,-38.9479,13.8660,-36.3227
335,L,-30.3719,8.6905,-39.2308
336,L,-32.8737,-2.3833,-43.1275
337,L,-26.9685,1.9404,-39.7561
338,L,-51.0503,-62.1256,-1.7431
339,L,-47.4810,-65.1206,-5.3476
340,L,-53.8389,-58.6272,-7.5755
341,L,-55.3248,-27.0667,-18.9257
342,L,-54.4961,-41.8071,-21.3352
343,L,-55.6850,-31.1162,-28.5042
344,L,-49.6447,-30.7727,-26.3539
345,L,-53.5445,-18.8728,-34.9139
346,L,-11.3671,-87.2397,7.4832
347,L,-6.6375,-81.1168,3.3846
348,L,-5.4442,-90.0294,-3.4652
349,L,-30.7907,-79.3569,-11.4579
350,L,-21.6086,-80.0305,-6.1197
351,L,-29.7549,-68.8888,-13.5412
352,L,-27.5266,-58.5376,-14.6048
353,L,-38.7995,-53.5314,-19.9718
354,L,-3.7337,-23.6040,4.7402
355,L,-7.3089,-26.0089,-4.7622
356,L,-11.8873,-33.2570,-1.6147
357,L,-16.0120,-47.0798,-7.2464
358,L,-21.1918,-39.0793,-7.0858
359,L,-20.0629,-41.2904,-10.0449
360,L,-24.0760,-37.1753,-14.7995
361,L,-28.1071,-49.0471,-5.1784
362,L,-48.1622,-10.4151,44.1618
363,L,-49.7808,-0.1475,44.5175
364,L,-47.6373,-4.9139,46.4779
365,L,-36.2162,-1.2073,45.1911
366,L,-28.7395,0.4583,49.5308
367,L,-45.8773,-21.6951,59.1050
368,L,-49.4307,-17.6905,52.6524
369,L,-38.9066,-22.0455,44.9822
370,L,-34.5728,-16.8949,38.5377
371,L,-22.6593,-31.5120,65.8675
372,L,-28.4463,-33.2485,66.1420
373,L,-30.8500,-30.2604,63.0965
374,L,-39.7417,-28.5132,61.4874
375,L,-14.9507,-16.3718,63.3886
376,L,-12.1415,-19.8958,72.8204
377,L,-19.0276,-21.8246,71.6641
378,L,-14.9676,-29.7140,57.6275
379,L,-23.3272,5.7006,47.9896
380,L,-21.5291,-5.4427,47.3638
381,L,-19.8096,-11.2057,57.5452
382,L,-8.7167,63.2388,7.6441
383,L,-9.3896,53.8165,13.0723
384,L,-7.9905,61.2986,20.7446
385,L,-7.9448,54.2531,34.8128
386,L,-9.2763,43.1542,45.3507
387,L,-34.6713,51.8135,2.8779
388,L,-28.5545,52.1766,-5.2998
389,L,-22.7639,51.1072,0.8197
390,L,-16.9137,61.9542,2.8207
391,L,-45.2856,30.5362,26.4265
392,L,-43.3869,31.0593,20.4678
393,L,-40.7496,38.1283,20.9968
394,L,-37.0937,46.7530,12.3293
395,L,-37.8418,-23.4097,20.3550
396,L,-33.0761,-22.1578,17.8780
397,L,-41.2685,-11.4119,18.5398
398,L,-44.0013,-0.0857,12.9844
399,L,-43.1562,10.9838,5.1602
400,L,-59.4163,-19.7891,24.4721
401,L,-59.1436,-27.3013,18.3575
402,L,-53.6536,-20.0131,21.6427
403,L,-45.9727,-20.8319,19.2089
404,L,-41.7339,-63.6925,33.8378
405,L,-37.9073,-59.5959,26.0268
406,L,-48.0685,-59.3291,28.3917
407,L,-51.6636,-54.4936,24.8303
408,L,-59.0105,-51.7025,22.5728
409,L,-33.0673,-50.3212,32.9667
410,L,-34.5843,-58.8252,37.1278
411,L,-40.0787,-58.6818,39.7863
412,L,-44.2934,-65.0975,42.8496
413,L,-7.5908,-72.5809,39.7650
414,L,-17.7759,-78.0457,33.1635
415,L,-17.3017,-76.2719,42.2149
416,L,-21.0082,-78.8186,39.0172
417,L,-23.6821,-71.8548,26.9654
418,L,-7.6598,-49.5187,59.2908
419,L,-7.3794,-48.6085,50.9335
420,L,-7.1023,-55.0453,52.9088
421,L,-7.6792,-63.1320,47.0506
422,L,-4.5397,12.8588,31.1435
423,L,-5.0690,3.9330,29.1953
424,L,-4.0733,-0.4683,34.0376
425,L,-3.6359,-14.1735,35.8498
426,L,-5.0604,-26.3353,37.2050
427,L,-7.9895,26.3549,-21.4350
428,L,-13.1762,14.6216,-14.0842
429,L,-8.3550,9.6512,-15.7697
430,L,-11.2945,-9.5026,-14.4467
431,L,-17.2780,-22.0536,-16.4142
432,L,-40.0855,-11.9201,-14.3690
433,L,-48.8441,3.1207,-17.2161
434,L,-42.1402,-4.5692,-20.7732
435,L,-39.6525,3.0861,-25.9139
436,L,-33.5167,3.1006,-27.9448
437,L,-63.1877,-44.8654,-2.6378
438,L,-59.0001,-46.1409,-8.6918
439,L,-62.1682,-37.8542,-11.0599
440,L,-65.2229,-26.4114,-15.4686
441,L,-62.1483,-15.3649,-21.1529
442,L,-15.1285,-98.2866,-3.6644
443,L,-8.6508,-96.5713,-11.0401
444,L,-17.1460,-96.5710,-15.9065
445,L,-28.2448,-86.2038,-16.9301
446,L,-39.4193,-75.6497,-15.1243
447,L,-6.2026,-37.7289,5.6751
448,L,-16.9316,-38.4332,4.2282
449,L,-11.5955,-44.2168,1.5111
450,L,-20.0852,-52.0099,-3.8640
451,L,-10.0661,-59.2674,-1.6148
452,L,-59.4908,1.0810,17.8424
453,L,-52.8730,3.1441,13.3571
454,L,-52.4455,4.0336,22.0022
455,L,-38.2411,3.4724,23.6333
456,L,-33.8291,13.1927,28.3466
457,L,-37.4641,4.8515,38.8152
458,L,-38.6464,13.7293,35.7780
459,L,-44.8956,23.2918,32.3350
460,L,-38.5654,28.8921,32.8667
461,L,-30.4602,34.2001,34.4646
462,L,-25.1173,37.2037,32.5346
463,L,-46.5064,-41.5655,41.0311
464,L,-53.7598,-41.4748,46.2295
465,L,-48.9491,-36.2192,39.5544
466,L,-52.1623,-30.0245,34.2812
467,L,-53.9015,-24.0330,30.8490
468,L,-55.8917,-18.6863,46.4986
469,L,-58.1541,-17.0157,39.4394
470,L,-59.0133,-15.5080,30.5784
471,L,-62.4790,-8.9375,26.0517
472,L,-57.6890,-9.1377,16.9172
473,L,-20.2041,-58.6903,62.9782
474,L,-21.2335,-62.8156,56.3844
475,L,-27.1157,-57.1121,62.7964
476,L,-34.7255,-54.8113,58.7631
477,L,-34.5464,-50.6892,52.0752
478,L,-28.8948,-36.9639,52.5824
479,L,-34.9556,-43.9574,52.4697
480,L,-32.8094,-46.4379,43.5195
481,L,-35.5716,-44.0853,37.6852
482,L,-40.8931,-42.7266,38.5688
483,L,-5.4937,-9.8272,51.4005
484,L,-11.9885,-19.2700,46.3258
485,L,-6.5110,-20.9669,52.5124
486,L,-5.5946,-29.5786,53.1526
487,L,-8.2237,-38.3314,56.5896
488,L,-5.2723,-29.4620,70.9901
489,L,-4.4485,-41.6861,64.6984
490,L,-15.7153,-43.9401,64.3053
491,L,-10.2203,-51.4668,68.6831
492,L,-14.5838,-53.9356,62.0172
493,L,-18.2888,36.2027,34.5600
494,L,-18.9450,35.0773,44.9734
495,L,-13.7461,31.5724,48.8971
496,L,-19.9013,13.5515,53.3657
497,L,-16.8446,19.2291,57.3280
498,L,-7.8470,23.7258,58.7174
499,L,-6.6982,13.2300,61.3971
500,L,-8.0651,1.2715,58.4110
501,L,-9.9285,1.8071,49.6097
502,L,-5.6912,24.1210,-5.5402
503,L,-0.8487,14.4916,1.4161
504,L,-0.8615,29.0974,-0.6684
505,L,-2.7796,31.0919,9.5141
506,L,-6.6236,28.4823,17.4651
507,L,-13.2590,43.6694,16.8180
508,L,-12.9506,31.7313,22.0579
509,L,-8.3161,22.6843,27.5350
510,L,-11.7416,14.5531,34.4917
511,L,-10.5378,8.6116,42.5204
512,L,-38.7656,26.5944,-9.8072
513,L,-32.0168,22.7136,-15.4026
514,L,-37.9987,26.9674,-15.9222
515,L,-24.2095,32.0410,-10.0744
516,L,-17.0005,35.4177,-20.6917
517,L,-21.0263,57.2012,-13.4974
518,L,-12.5578,48.3614,-21.3184
519,L,-9.2850,39.1595,-20.4291
520,L,-2.7625,35.6333,-26.4876
521,L,-8.4579,28.6124,-14.1687
522,L,-48.4728,8.8235,8.4301
523,L,-52.5516,14.5226,8.1279
524,L,-47.0534,19.3295,10.6841
525,L,-43.5089,27.2650,12.0061
526,L,-52.0479,27.0635,6.1216
527,L,-42.1439,25.4899,6.7781
528,L,-37.4551,29.9177,2.8083
529,L,-36.0689,32.3695,-4.3035
530,L,-27.1821,26.2392,-0.1252
531,L,-64.3206,-19.7691,-0.0815
532,L,-58.0945,-14.4037,-5.3799
533,L,-59.9018,-15.1235,1.7492
534,L,-52.0076,-13.6109,2.1122
535,L,-46.6657,-19.2791,-5.1262
536,L,-32.9404,-21.7408,8.8380
537,L,-34.8907,-19.8192,0.4957
538,L,-36.4046,-16.6172,-7.2683
539,L,-36.9347,-4.3736,-0.1217
540,L,-31.7013,12.8435,1.6159
541,L,-56.2041,-44.0998,38.3015
542,L,-57.8863,-46.4475,30.6603
543,L,-55.7025,-48.3361,22.6486
544,L,-51.0006,-32.8208,24.0219
545,L,-46.8851,-43.2494,22.1837
546,L,-58.3978,-40.7397,14.6136
547,L,-61.6036,-33.4344,9.2060
548,L,-63.8135,-26.4162,5.6347
549,L,-59.1548,-28.7625,-0.9818
550,L,-40.9068,-81.0816,6.5517
551,L,-42.9235,-80.9560,0.2804
552,L,-47.9058,-74.3930,6.7669
553,L,-42.0306,-64.8487,5.5674
554,L,-53.3203,-61.1205,5.6844
555,L,-39.6874,-57.6909,14.5252
556,L,-50.0452,-57.7649,8.7681
557,L,-57.1886,-53.3039,2.2793
558,L,-53.1622,-44.8242,-1.2672
559,L,-49.3316,-36.0983,-0.4010
560,L,-22.9278,-63.2731,48.9658
561,L,-22.0653,-61.1994,35.2042
562,L,-28.7829,-67.2057,24.3118
563,L,-32.4036,-68.4015,42.9754
564,L,-31.5755,-75.0112,31.5386
565,L,-32.7457,-78.6324,16.6813
566,L,-36.3254,-86.9453,14.7339
567,L,-35.6290,-81.7799,9.8308
568,L,-26.9816,-85.7017,1.6910
569,L,-19.9330,-60.2539,14.7121
570,L,-20.3500,-71.8087,7.8747
571,L,-14.6925,-67.7472,9.3325
572,L,-4.1480,-73.0391,11.4447
573,L,-2.9244,-86.2700,11.4891
574,L,-5.2860,-82.7499,32.0805
575,L,-7.0429,-86.8000,18.8349
576,L,-5.1913,-98.6939,8.4793
577,L,-12.1101,-102.1253,3.0250
578,L,-21.8176,-97.3900,1.3343
579,L,-16.5832,-23.3994,38.2354
580,L,-11.3332,-30.3103,38.9159
581,L,-4.8185,-35.0157,40.9911
582,L,-10.8794,-48.4912,43.8322
583,L,-14.8537,-44.6752,36.2811
584,L,-8.9542,-44.1312,31.1092
585,L,-9.3507,-52.7207,24.3824
586,L,-6.1225,-61.8719,17.4818
587,L,-7.6678,-58.3839,10.4839
588,L,-2.9944,-3.7821,-1.4729
589,L,-1.3494,1.5596,5.0063
590,L,-2.9980,-7.1244,9.7421
591,L,-3.3878,-20.7701,12.6323
592,L,-0.2837,-7.7881,26.3612
593,L,-0.5135,-21.6979,19.5233
594,L,-0.2969,-32.8924,12.0421
595,L,0.1102,-42.9166,11.6575
596,L,-7.4453,-49.9570,11.2316
597,L,-25.0574,16.5349,-15.8004
598,L,-30.0234,4.5200,-14.1801
599,L,-33.0793,-2.4116,-21.8168
600,L,-19.7533,0.3580,-11.9133
601,L,-31.3283,-7.1685,-19.1399
602,L,-27.2510,-4.0500,-30.1936
603,L,-21.5297,-7.8694,-30.9195
604,L,-22.3884,-15.2876,-30.4756
605,L,-33.4912,-14.6856,-31.2423
606,L,-28.2809,-23.4753,-26.9598
607,L,-50.2408,-12.6910,-14.7823
608,L,-53.9004,-9.4092,-23.4294
609,L,-56.8846,-6.2249,-28.5699
610,L,-48.5847,11.7370,-23.9954
611,L,-47.8599,3.1899,-34.2843
612,L,-46.3659,-8.6062,-34.4852
613,L,-43.6104,-9.5583,-41.8047
614,L,-37.2528,-8.0691,-34.6393
615,L,-40.7828,-17.2650,-23.3807
616,L,-43.9763,-74.0014,-5.3739
617,L,-39.8392,-69.9051,-6.9393
618,L,-40.8130,-60.0974,-11.1322
619,L,-56.7345,-52.7357,-15.7645
620,L,-49.5535,-50.5572,-14.8024
621,L,-41.7628,-48.3179,-15.3712
622,L,-43.0144,-38.9555,-21.4900
623,L,-42.9374,-30.9655,-20.7918
624,L,-35.5734,-32.6394,-25.7526
625,L,-15.6737,-74.4970,2.8225
626,L,-3.7506,-69.2904,3.5486
627,L,-13.0235,-70.9894,-3.7024
628,L,-10.2180,-86.2198,-12.7417
629,L,-16.3052,-73.9454,-10.4462
630,L,-23.1426,-60.4697,-7.8090
631,L,-32.3405,-54.1524,-9.5535
632,L,-29.1950,-42.7802,-18.2686
633,L,-36.8452,-31.8971,-18.2238
634,L,0.9919,-20.7184,-10.4149
635,L,-11.6103,-23.4066,-12.1276
636,L,-27.6893,-29.2115,-9.2116
637,L,-26.1902,-38.5726,2.3342
638,L,-33.4953,-38.0647,-3.9980
639,L,-37.5665,-34.6274,-12.0465
640,L,-24.8818,-28.5267,-16.7730
641,L,-26.2600,-30.5801,-20.5377
642,L,-39.7338,-15.6652,60.1616
643,L,-40.2640,-10.2927,60.5773
644,L,-38.0449,-13.0585,63.2172
645,L,-36.4459,-22.2367,56.6459
646,L,-37.1513,-19.2862,55.1792
647,L,-33.4462,-22.4220,60.9786
648,L,-32.1910,-23.9262,54.6846
649,L,-35.1688,-18.1133,66.2836
650,L,-31.5179,-21.7963,65.2959
651,L,-33.6948,-12.8917,63.1507
652,L,-22.6672,49.3243,23.3085
653,L,-20.9073,50.5898,26.8642
654,L,-24.0179,45.8037,29.8436
655,L,-23.5899,44.0585,18.2730
656,L,-23.5773,50.2554,17.8542
657,L,-24.6547,37.2916,20.9837
658,L,-27.6673,40.4737,17.0595
659,L,-56.2685,-3.5083,8.1851
660,L,-54.0114,-1.2458,6.5146
661,L,-57.2624,2.0678,6.6280
662,L,-59.0668,-4.8144,10.1559
663,L,-58.5377,-7.4894,9.2643
664,L,-50.6665,-52.1411,43.6729
665,L,-49.9712,-51.4496,39.2415
666,L,-51.7744,-49.2970,43.2185
667,L,-47.6894,-49.8040,42.9497
668,L,-49.0135,-53.1820,43.6469
669,L,-12.8289,-68.5485,56.6466
670,L,-12.7800,-68.8298,49.7789
671,L,-16.1646,-66.9458,53.9602
672,L,-13.8629,-64.1741,61.2953
673,L,-10.2366,-66.7060,59.4546
674,L,-12.2836,-5.0137,45.0587
675,L,-12.1742,-7.7831,42.2832
676,L,-13.2122,-11.0774,44.6226
677,L,-4.7651,13.2107,-6.3704
678,L,-4.7501,5.9703,-7.0350
679,L,-2.8805,2.5001,-5.1190
680,L,-31.6092,19.5815,-3.9667
681,L,-34.8224,15.0547,-6.4235
682,L,-27.7638,18.5256,-6.3827
683,L,-48.4684,-26.2326,-5.5483
684,L,-47.5056,-25.7591,-10.0755
685,L,-49.4021,-21.4940,-8.1904
686,L,-30.3356,-89.4944,-5.3561
687,L,-32.1681,-91.0159,-8.0486
688,L,-38.2801,-87.4767,-4.7878
689,L,-18.5899,-58.2013,8.3151
690,L,-23.5189,-59.0610,6.4476
691,L,-25.1264,-63.8078,7.0931
692,L,-55.3080,-3.9464,36.1643
693,L,-53.9490,-0.2823,35.2574
694,L,-53.9536,-2.1391,38.6385
695,L,-34.1649,8.0057,56.0511
696,L,-37.2197,13.3354,52.7943
697,L,-34.0888,14.3628,51.1792
698,L,-32.2224,19.3882,46.6711
699,L,-32.0244,12.8670,47.6692
700,L,-44.8162,-29.3737,47.7481
701,L,-45.0680,-27.1077,44.0543
702,L,-48.7979,-25.5386,50.1019
703,L,-46.0001,-9.9996,36.6631
704,L,-42.4237,-10.5295,30.9748
705,L,-48.7892,-7.2736,33.3900
706,L,-50.8614,-5.0712,30.5241
707,L,-19.3092,-38.3981,64.2704
708,L,-20.9445,-42.4736,58.0839
709,L,-21.2893,-37.6553,60.9082
710,L,-46.3595,-29.3878,56.1442
711,L,-42.9556,-33.6473,52.9755
712,L,-43.5653,-31.1105,50.1965
713,L,-39.0428,-31.0108,44.6291
714,L,-9.7159,-9.5312,68.4498
715,L,-6.5363,-13.8194,67.7117
716,L,-8.3419,-13.7632,70.4031
717,L,-18.6243,-31.7387,72.8447
718,L,-14.1782,-33.2036,74.3962
719,L,-17.2853,-35.4028,71.1542
720,L,-18.7040,-40.8437,67.6781
721,L,-26.8829,13.3162,42.0000
722,L,-28.9474,10.1733,47.5575
723,L,-15.5067,-7.7671,66.3496
724,L,-17.7454,-2.4471,68.7752
725,L,-13.6639,-6.0397,69.3203
726,L,-11.8009,-4.9502,66.3030
727,L,-13.4494,47.9819,-0.9747
728,L,-10.7084,44.8013,1.1251
729,L,-12.3179,48.3713,4.1302
730,L,-6.3642,39.7300,44.7308
731,L,-8.0671,37.3779,39.2915
732,L,-7.7473,31.5650,45.1893
733,L,-6.5689,25.5525,44.6054
734,L,-7.3741,28.2777,49.5954
735,L,-41.1842,47.0607,-9.3512
736,L,-38.2779,46.4683,-11.7325
737,L,-37.9836,51.8578,-8.7093
738,L,-8.0258,58.6881,-0.9108
739,L,-7.2794,58.7257,-6.5738
740,L,-9.3904,52.1497,-4.1528
741,L,-12.3691,47.6886,-6.6788
742,L,-35.7052,19.9215,23.1202
743,L,-40.0440,18.0840,20.7160
744,L,-37.7699,22.7503,20.6074
745,L,-38.0853,47.7675,-0.0576
746,L,-38.7663,40.7371,-1.2341
747,L,-39.2143,43.5345,-6.1500
748,L,-42.9203,39.5213,-9.8924
749,L,-36.9293,-32.0377,11.8960
750,L,-40.3303,-28.6071,10.5638
751,L,-34.2268,-30.3761,13.1110
752,L,-38.3121,9.9724,11.7297
753,L,-34.9789,5.6824,13.8187
754,L,-34.9181,12.8641,12.6878
755,L,-32.0623,15.1583,13.0862
756,L,-35.7268,18.8111,11.4520
757,L,-59.6978,-28.4571,29.3696
758,L,-62.7844,-31.5798,30.0963
759,L,-62.3771,-29.3534,26.0875
760,L,-35.2177,-32.0261,21.0914
761,L,-36.6617,-35.9718,17.5792
762,L,-35.3500,-34.9734,13.5394
763,L,-39.2415,-33.8431,7.1489
764,L,-45.9639,-69.3260,24.3271
765,L,-43.9899,-68.4747,19.3515
766,L,-42.0288,-65.9759,22.8521
767,L,-58.3452,-51.9258,15.9700
768,L,-53.8885,-49.6257,14.2697
769,L,-59.3646,-47.2523,12.7847
770,L,-59.0015,-43.1862,9.6172
771,L,-62.8171,-44.5387,12.8359
772,L,-27.0336,-52.6778,44.2441
773,L,-26.2684,-56.4104,42.8206
774,L,-27.4377,-55.1306,39.1706
775,L,-39.7966,-69.4651,32.5747
776,L,-39.8301,-73.5092,33.3882
777,L,-44.7197,-71.7513,29.2747
778,L,-44.7227,-72.9591,25.8240
779,L,-13.8695,-65.3241,32.0775
780,L,-19.2248,-71.1798,25.3629
781,L,-18.2762,-70.9172,29.4913
782,L,-23.2888,-82.5238,21.3202
783,L,-17.5112,-87.1324,21.5267
784,L,-19.7643,-85.1116,17.0603
785,L,-20.4792,-89.3864,14.4658
786,L,-23.5500,-82.6183,13.1042
787,L,-17.3466,-41.4074,53.2975
788,L,-18.1943,-41.7845,48.4011
789,L,-15.9450,-45.9253,50.5310
790,L,-4.3895,-70.6596,35.6376
791,L,-4.7860,-65.5651,34.5161
792,L,-6.7116,-68.5531,31.6802
793,L,-8.9630,-66.4086,28.8385
794,L,-2.4665,18.5638,20.5552
795,L,-0.6266,12.6053,19.2312
796,L,-1.1462,12.5351,23.4351
797,L,-5.5172,-28.3497,30.4373
798,L,-8.5294,-28.2466,29.5165
799,L,-7.7520,-33.9384,29.4628
800,L,-8.3053,-38.9336,27.5158
801,L,-4.2869,-38.1508,29.0126
802,L,-15.9648,25.5869,-23.0807
803,L,-17.8690,19.4464,-21.5000
804,L,-14.6505,20.7276,-22.4032
805,L,-28.7503,-20.8141,-11.6215
806,L,-32.8267,-18.5627,-13.3529
807,L,-37.7744,-22.1741,-13.9889
808,L,-38.1279,-23.3628,-18.3435
809,L,-39.5803,-26.8438,-14.1955
810,L,-51.5668,-4.5903,-7.1834
811,L,-56.3282,3.3551,-7.9069
812,L,-52.1565,1.9392,-9.7950
813,L,-29.5792,10.5698,-35.5779
814,L,-29.9750,14.9091,-38.3751
815,L,-26.1760,9.4541,-39.5571
816,L,-27.9795,5.0460,-41.3902
817,L,-25.1264,4.2939,-38.8059
818,L,-55.9404,-60.3623,-1.8630
819,L,-54.0315,-61.7702,-4.4954
820,L,-55.1421,-56.1612,-4.3634
821,L,-54.3161,-21.7599,-22.5833
822,L,-52.8334,-29.0710,-23.7634
823,L,-54.1528,-24.0423,-27.7873
824,L,-55.3110,-24.5054,-31.2050
825,L,-54.1923,-18.8041,-31.4747
826,L,-11.4502,-89.9937,3.8428
827,L,-10.8475,-87.7573,-0.4046
828,L,-10.6129,-91.0949,-2.7607
829,L,-35.6770,-73.0703,-16.3061
830,L,-29.3514,-74.6107,-13.2541
831,L,-36.0195,-66.5425,-15.6574
832,L,-34.7669,-61.1235,-15.4762
833,L,-41.1193,-58.6161,-20.4425
834,L,-6.0914,-27.0669,6.5709
835,L,-6.9468,-28.3826,1.3808
836,L,-8.7713,-32.0888,2.9902
837,L,-15.9633,-52.3888,-7.4431
838,L,-18.2059,-44.6775,-9.4571
839,L,-21.4243,-49.8096,-7.2239
840,L,-24.4657,-45.5982,-6.5635
841,L,-23.7216,-53.8182,-5.4037
842,L,-44.8556,-12.1415,45.8533
843,L,-49.8228,-8.2228,48.5295
844,L,-46.2849,-9.5740,50.1667
845,L,-34.3591,-9.0057,47.4259
846,L,-37.7610,-6.4932,43.4669
847,L,-32.2156,-5.0592,44.2559
848,L,-31.5095,-0.8839,48.5756
849,L,-27.8822,-3.6358,45.6830
850,L,-43.3635,-24.6202,54.6387
851,L,-43.6460,-21.4116,51.8708
852,L,-40.0647,-24.2666,47.3635
853,L,-35.2109,-14.2523,48.1271
854,L,-32.4719,-17.3942,42.8985
855,L,-37.4350,-13.7363,43.5258
856,L,-40.4011,-14.0167,40.3140
857,L,-22.0505,-31.8660,57.7201
858,L,-26.5659,-30.3111,64.2088
859,L,-25.9471,-30.5042,56.5558
860,L,-34.6814,-29.2838,49.9336
861,L,-34.9764,-30.4821,55.5835
862,L,-39.6822,-28.2514,55.3343
863,L,-42.9038,-25.1427,60.5043
864,L,-19.2126,-17.5763,63.9868
865,L,-17.7619,-19.1722,68.4100
866,L,-21.8479,-18.6487,69.5119
867,L,-21.3881,-24.7510,56.6374
868,L,-18.7271,-24.8315,60.5419
869,L,-18.3483,-29.4784,54.8920
870,L,-18.1949,-33.1227,58.4138
871,L,-24.6799,-1.9917,45.6441
872,L,-24.7499,-7.9119,44.8789
873,L,-25.2321,-14.7368,60.5774
874,L,-22.2681,-13.1484,55.4669
875,L,-21.1598,-15.5210,59.5751
876,L,-17.5415,-13.7001,59.9113
877,L,-11.2150,65.3328,11.5392
878,L,-8.4322,63.2920,15.0536
879,L,-10.6126,62.5446,17.2662
880,L,-14.8187,50.5317,32.2723
881,L,-10.9834,55.1686,29.9065
882,L,-10.7271,49.8944,36.0902
883,L,-7.6416,49.0733,40.5264
884,L,-11.9421,44.7989,41.5059
885,L,-32.2769,49.5143,5.8099
886,L,-29.2760,48.8808,0.7632
887,L,-26.4471,47.8895,3.7676
888,L,-21.9190,60.4133,11.7442
889,L,-21.3114,60.3882,6.7128
890,L,-16.4005,63.3160,8.5526
891,L,-10.7745,64.6744,5.9729
892,L,-42.0603,33.2507,27.4703
893,L,-42.4454,33.7210,23.3402
894,L,-40.8470,38.4212,25.0963
895,L,-33.7190,49.7708,16.5327
896,L,-36.7329,47.2286,16.3173
897,L,-35.6442,51.7642,12.8595
898,L,-37.2470,50.8642,7.7189
899,L,-42.5774,-18.3361,19.1782
900,L,-40.0019,-17.2712,20.8305
901,L,-44.6182,-12.2996,18.7250
902,L,-49.3767,2.2729,5.0785
903,L,-46.8654,-1.7134,11.2728
904,L,-46.5687,4.1507,6.7442
905,L,-43.1799,5.2308,8.2433
906,L,-45.7803,9.0757,2.4427
907,L,-60.9519,-16.1832,22.2737
908,L,-56.9582,-20.7095,22.9328
909,L,-58.5532,-16.9473,18.8438
910,L,-51.6896,-14.4095,16.0096
911,L,-50.6045,-18.0510,14.8487
912,L,-45.6179,-18.4536,15.7566
913,L,-41.4582,-22.8591,18.9554
914,L,-46.7489,-63.3482,35.0076
915,L,-44.6784,-61.2038,31.2437
916,L,-50.0852,-61.4526,32.2949
917,L,-51.0156,-51.0207,30.5442
918,L,-50.0803,-54.6750,27.7770
919,L,-52.8409,-51.4359,26.7712
920,L,-55.0817,-52.6452,23.1497
921,L,-57.5281,-51.5341,27.0394
922,L,-37.0633,-50.2327,33.1040
923,L,-37.4323,-54.8546,34.6362
924,L,-41.2571,-54.8460,35.6570
925,L,-49.2211,-59.8825,40.7254
926,L,-46.4532,-61.9355,43.0217
927,L,-47.9565,-63.9389,39.6287
928,L,-43.5206,-64.5379,38.1541
929,L,-7.1131,-73.5412,42.9608
930,L,-12.6860,-73.3276,41.4856
931,L,-11.1330,-75.9742,44.0826
932,L,-16.6110,-72.0124,41.8062
933,L,-18.8411,-76.0059,43.2417
934,L,-20.4928,-73.4116,38.1270
935,L,-22.3071,-76.0305,32.2492
936,L,-21.4505,-70.1850,32.6021
937,L,-7.1030,-52.5880,60.8175
938,L,-7.3272,-52.2499,56.3268
939,L,-7.5341,-55.3351,56.4735
940,L,-6.4042,-68.0815,51.9026
941,L,-9.0527,-63.4188,50.9305
942,L,-5.6713,-68.5219,47.7837
943,L,-5.2748,-69.1682,43.6801
944,L,-6.0692,9.6063,34.9619
945,L,-4.3964,6.2769,32.6095
946,L,-4.5853,3.3507,36.7430
947,L,-7.4603,-13.3896,39.5038
948,L,-4.5215,-10.3448,38.9398
949,L,-4.8175,-16.9396,39.3324
950,L,-4.1193,-20.5804,37.1219
951,L,-4.9364,-23.6881,40.8523
952,L,-5.0238,22.8266,-24.8418
953,L,-8.3491,19.2204,-19.4520
954,L,-6.3211,16.3811,-19.8701
955,L,-5.0761,-8.3894,-13.2148
956,L,-6.7816,-2.9905,-14.7030
957,L,-8.8792,-13.0783,-18.4628
958,L,-14.0284,-16.3654,-18.6038
959,L,-12.3809,-20.4748,-20.4655
960,L,-36.6955,-8.5888,-10.9539
961,L,-41.3228,-8.4337,-17.5895
962,L,-37.6395,-6.1467,-13.8725
963,L,-36.1000,3.6043,-13.5310
964,L,-38.2000,-0.8669,-19.4776
965,L,-36.9626,1.6463,-21.0701
966,L,-36.7069,3.9988,-27.7628
967,L,-34.6596,2.5728,-21.5989
968,L,-58.5560,-42.1882,-5.1646
969,L,-62.3896,-41.1068,-6.9980
970,L,-57.9477,-38.6359,-9.5488
971,L,-57.4905,-23.6036,-14.7270
972,L,-62.2460,-26.6049,-12.9789
973,L,-63.7616,-21.5210,-14.6878
974,L,-63.7071,-20.4626,-17.1547
975,L,-62.7434,-15.9373,-16.8534
976,L,-15.8720,-100.7968,-7.8962
977,L,-15.3744,-98.3815,-12.8021
978,L,-18.6669,-98.7831,-15.7580
979,L,-35.5804,-88.1543,-15.1525
980,L,-29.0385,-89.8845,-15.8175
981,L,-35.7937,-84.6527,-16.1612
982,L,-35.6856,-80.8866,-14.1066
983,L,-40.0021,-79.1826,-13.3825
984,L,-7.0024,-41.9692,6.1492
985,L,-11.0034,-41.2981,4.5298
986,L,-10.4492,-45.9065,3.8595
987,L,-22.8619,-59.3537,-0.0803
988,L,-22.2426,-53.0982,-1.0626
989,L,-18.3661,-58.3742,-0.9532
990,L,-13.4481,-55.9380,-1.5520
991,L,-9.7055,-60.7602,1.0994
992,L,-59.2623,1.8210,22.2453
993,L,-57.5900,5.6379,19.9158
994,L,-57.1352,6.0278,24.7243
995,L,-43.0179,-0.5340,29.0562
996,L,-43.6233,2.3712,26.2070
997,L,-36.5946,1.9286,27.1431
998,L,-33.7774,7.7131,25.7175
999,L,-33.2928,6.6109,29.4662
1000,L,-44.5929,2.8921,44.7412
1001,L,-42.0324,1.1955,40.5755
1002,L,-38.1585,5.1750,43.0177
1003,L,-41.3182,19.4719,43.0767
1004,L,-41.6598,14.5993,40.3753
1005,L,-42.4998,19.4539,38.0849
1006,L,-41.2091,19.0528,34.2588
1007,L,-44.2562,23.3987,36.2980
1008,L,-44.7402,26.8682,33.1983
1009,L,-39.7866,25.9774,35.7909
1010,L,-29.2707,27.3898,37.3116
1011,L,-30.5792,32.1461,38.9328
1012,L,-27.5455,33.2126,36.3492
1013,L,-27.2324,34.4303,33.0757
1014,L,-24.3460,33.6948,33.2195
1015,L,-43.2581,-38.6186,39.2657
1016,L,-46.7401,-38.7891,42.5465
1017,L,-44.5319,-35.6060,37.3197
1018,L,-46.6689,-25.6251,35.3244
1019,L,-47.7094,-29.5446,32.9281
1020,L,-49.1145,-26.0383,32.4297
1021,L,-52.9895,-27.6673,32.2029
1022,L,-51.1515,-22.9318,32.9562
1023,L,-46.3273,-19.7897,46.7429
1024,L,-53.1367,-17.9474,49.8947
1025,L,-50.1236,-19.8826,44.7000
1026,L,-51.9550,-14.7305,32.5386
1027,L,-55.9525,-14.8592,40.1838
1028,L,-58.7892,-12.4397,37.4959
1029,L,-58.8588,-15.9914,35.2447
1030,L,-61.0887,-11.0116,33.7934
1031,L,-62.5098,-11.9425,29.5281
1032,L,-59.6938,-9.4313,29.2842
1033,L,-54.0968,-3.2575,23.3889
1034,L,-54.4513,-8.6530,19.2193
1035,L,-55.6274,-2.8114,20.0903
1036,L,-56.9065,-3.4136,16.6216
1037,L,-20.8947,-55.2281,61.2565
1038,L,-23.5364,-58.8149,64.3355
1039,L,-24.6842,-54.8414,63.6754
1040,L,-29.2812,-47.2331,60.5471
1041,L,-32.3536,-51.3768,62.8693
1042,L,-35.6048,-50.4441,60.2761
1043,L,-35.3787,-52.6423,56.1438
1044,L,-37.4608,-49.6229,57.3963
1045,L,-32.7041,-33.6209,66.0984
1046,L,-28.2478,-35.3803,58.1309
1047,L,-32.5669,-35.2993,59.4160
1048,L,-32.4541,-37.3222,48.5080
1049,L,-32.3295,-39.8694,51.3207
1050,L,-33.2575,-42.6505,48.3205
1051,L,-36.7309,-46.1624,49.1146
1052,L,-35.2318,-44.2525,45.5528
1053,L,-34.1179,-45.3437,40.2630
1054,L,-33.6220,-42.8631,42.2643
1055,L,-36.6271,-34.9817,35.9822
1056,L,-37.1145,-40.0382,37.3741
1057,L,-40.4710,-39.2274,37.8366
1058,L,-43.6544,-42.2213,39.7465
1059,L,-6.4222,-10.5332,54.0039
1060,L,-5.1608,-16.2451,51.5215
1061,L,-5.2134,-16.3309,55.3976
1062,L,-8.0274,-24.2074,63.6023
1063,L,-9.1126,-25.2658,58.1556
1064,L,-6.2904,-29.6780,57.6756
1065,L,-5.6865,-34.6013,54.2110
1066,L,-5.9129,-34.7500,58.2671
1067,L,-12.3483,-24.8411,72.9262
1068,L,-8.8044,-24.4412,73.8771
1069,L,-8.3570,-29.8079,70.8758
1070,L,-8.3610,-40.5459,73.8952
1071,L,-4.4219,-41.6270,69.6438
1072,L,-8.5950,-42.5084,68.9060
1073,L,-10.5380,-41.1016,64.8038
1074,L,-15.5948,-42.4533,68.1673
1075,L,-12.6140,-48.6904,66.6907
1076,L,-13.7436,-47.8899,70.8005
1077,L,-17.8695,-49.0162,62.4868
1078,L,-15.4557,-51.5762,65.7658
1079,L,-16.6558,-52.6595,60.0991
1080,L,-17.6703,-55.8209,59.5543
1081,L,-21.3905,37.2998,32.2350
1082,L,-20.9691,31.0347,32.0702
1083,L,-20.5782,23.4856,45.4122
1084,L,-19.5817,28.7446,42.3884
1085,L,-21.2346,30.1259,48.5247
1086,L,-18.0350,34.8355,49.2278
1087,L,-19.4202,29.0602,51.4367
1088,L,-20.3765,3.2958,50.9011
1089,L,-20.6070,9.2191,49.5604
1090,L,-19.0027,6.7245,54.8726
1091,L,-15.6682,8.1896,61.7271
1092,L,-18.4052,12.8931,59.9688
1093,L,-13.7713,14.5584,57.7435
1094,L,-11.8895,21.5966,57.0693
1095,L,-9.7621,17.5471,61.1695
1096,L,-6.8012,18.9018,60.9964
1097,L,-8.0668,13.2251,64.4753
1098,L,-8.4541,-4.3634,60.7019
1099,L,-6.1764,0.4694,62.7799
1100,L,-6.5439,-4.5131,57.6728
1101,L,-6.0051,-4.0872,54.3550
1102,L,-5.6508,30.2472,-7.8822
1103,L,-3.1607,26.4330,-3.2777
1104,L,-6.4753,32.1558,-3.8852
1105,L,-5.3585,40.0366,6.3192
1106,L,-5.8630,34.7567,4.9457
1107,L,-6.3544,35.0434,10.1470
1108,L,-5.9578,29.7573,13.2223
1109,L,-5.4288,34.4064,15.7118
1110,L,-7.6592,52.0311,19.0725
1111,L,-9.8923,48.9966,14.6373
1112,L,-9.0755,46.5419,20.6679
1113,L,-9.4249,31.8767,31.5072
1114,L,-12.1137,35.3088,25.9959
1115,L,-13.0263,29.4901,27.8283
1116,L,-10.8939,27.2240,24.3378
1117,L,-13.4563,22.9763,28.9315
1118,L,-10.6513,18.3436,30.7383
1119,L,-13.5040,19.5467,33.8392
1120,L,-10.5184,14.8339,46.1092
1121,L,-11.5027,12.9304,42.0344
1122,L,-9.5854,10.2968,45.6459
1123,L,-10.2229,4.8720,46.0508
1124,L,-8.4088,6.6234,49.9896
1125,L,-44.4774,27.6200,-12.7652
1126,L,-42.1592,25.0351,-14.3368
1127,L,-42.5097,29.0834,-14.4846
1128,L,-28.3609,39.6940,-9.9577
1129,L,-29.1988,34.8817,-7.8432
1130,L,-23.5367,37.3149,-10.8384
1131,L,-19.9556,34.2948,-14.5941
1132,L,-21.5359,39.1659,-16.7062
1133,L,-21.0540,53.5815,-6.0223
1134,L,-25.3393,58.3337,-8.7963
1135,L,-17.8745,56.2439,-11.2223
1136,L,-4.9256,55.5124,-21.3504
1137,L,-9.1855,55.4957,-20.3901
1138,L,-8.0288,50.5939,-22.0549
1139,L,-10.7851,44.1622,-22.2721
1140,L,-5.4054,43.7876,-23.4656
1141,L,-4.5915,37.6764,-26.5488
1142,L,-3.1506,41.9348,-24.6010
1143,L,-10.0954,36.6277,-9.3635
1144,L,-9.8168,34.3674,-14.1989
1145,L,-7.4047,31.7721,-10.9498
1146,L,-6.3984,26.3417,-10.6860
1147,L,-47.2486,3.7844,15.1493
1148,L,-49.5730,4.5640,10.0249
1149,L,-46.3116,7.9812,13.9769
1150,L,-52.6704,18.1250,20.2842
1151,L,-53.2233,14.8576,15.4849
1152,L,-53.7668,17.5981,15.3598
1153,L,-49.3304,15.5911,10.1909
1154,L,-52.6095,20.8682,12.4022
1155,L,-38.7874,33.0935,17.9671
1156,L,-39.7019,28.6731,16.8724
1157,L,-36.6908,31.1090,12.7178
1158,L,-49.7477,32.9562,0.3726
1159,L,-50.0019,32.3454,6.5631
1160,L,-50.7889,29.2272,3.0111
1161,L,-47.7687,25.8740,5.7443
1162,L,-45.1399,28.6395,2.9071
1163,L,-39.5970,27.9581,4.8389
1164,L,-43.0612,30.1333,0.1501
1165,L,-47.2413,33.9064,-12.7004
1166,L,-42.3294,33.2815,-7.5214
1167,L,-43.2102,30.3385,-10.7478
1168,L,-36.7522,28.8247,-5.7144
1169,L,-60.9546,-20.7501,1.0775
1170,L,-62.4879,-16.7594,0.8746
1171,L,-57.5854,-18.7767,0.8801
1172,L,-44.7324,-21.5831,6.0445
1173,L,-51.1751,-17.6044,5.4714
1174,L,-46.6484,-18.8484,2.4138
1175,L,-49.2991,-15.6733,-1.1049
1176,L,-44.6844,-22.9530,-1.9110
1177,L,-34.8620,-15.7549,18.4204
1178,L,-32.8760,-22.7511,13.0607
1179,L,-34.7340,-16.0973,14.6592
1180,L,-35.7637,-6.6115,9.0296
1181,L,-38.2220,-14.4898,7.9815
1182,L,-38.6316,-13.2133,4.3191
1183,L,-35.7180,-18.8020,-3.6222
1184,L,-37.6125,-11.7575,0.4407
1185,L,-36.0865,-11.2091,-3.6037
1186,L,-37.2104,-4.7768,3.3975
1187,L,-28.6297,18.7771,8.6077
1188,L,-30.8945,11.8732,4.8255
1189,L,-29.1601,20.0291,5.2475
1190,L,-30.3341,20.6482,2.2615
1191,L,-27.4205,27.1354,3.5927
1192,L,-55.7185,-37.1219,44.2309
1193,L,-55.5877,-42.7146,43.2536
1194,L,-57.1484,-38.5071,41.6704
1195,L,-54.6344,-38.8590,32.5753
1196,L,-57.0254,-42.1049,34.3613
1197,L,-54.1255,-44.2375,31.3198
1198,L,-56.4645,-47.8657,27.2702
1199,L,-51.9233,-46.0651,27.7993
1200,L,-54.2174,-27.7293,17.5098
1201,L,-56.3651,-30.3505,19.9802
1202,L,-50.7064,-31.4898,18.8879
1203,L,-42.6042,-40.5130,16.2745
1204,L,-43.1489,-39.7688,22.1490
1205,L,-47.1410,-41.5208,17.3047
1206,L,-51.8020,-43.0428,17.8154
1207,L,-53.6156,-39.5213,13.6370
1208,L,-60.2190,-37.1915,12.0533
1209,L,-54.7946,-36.2652,9.9202
1210,L,-50.8925,-27.7135,1.8720
1211,L,-56.5120,-28.7703,5.2000
1212,L,-58.6425,-25.0529,2.7811
1213,L,-64.7660,-23.1003,2.6268
1214,L,-43.0036,-78.0738,9.8973
1215,L,-46.7162,-79.6031,7.2120
1216,L,-47.8205,-75.8270,11.1570
1217,L,-41.6845,-65.8984,10.7835
1218,L,-43.6467,-68.5860,8.6597
1219,L,-44.4129,-64.0440,7.5990
1220,L,-47.3323,-60.8993,4.8632
1221,L,-49.4080,-63.5575,8.1339
1222,L,-40.5602,-55.9648,24.0273
1223,L,-37.5392,-58.4997,20.1515
1224,L,-38.9470,-54.2072,18.4901
1225,L,-45.6773,-48.6381,8.1247
1226,L,-44.6733,-53.5902,8.5353
1227,L,-48.6078,-53.1040,5.7380
1228,L,-53.4683,-56.3059,5.8715
1229,L,-52.7808,-50.8402,2.8277
1230,L,-56.3112,-48.4010,0.7645
1231,L,-51.6062,-46.6679,1.6353
1232,L,-57.4668,-37.2649,4.5056
1233,L,-51.1079,-38.1314,2.2113
1234,L,-55.7684,-34.7363,1.4878
1235,L,-53.4323,-32.5345,-0.9156
1236,L,-61.6717,-31.4830,1.3540
1237,L,-23.1632,-60.1966,54.7794
1238,L,-22.8627,-63.8129,53.0621
1239,L,-24.1907,-61.6619,50.5632
1240,L,-27.5112,-63.1161,41.6697
1241,L,-24.8964,-61.4018,41.3044
1242,L,-25.3832,-61.6150,35.2282
1243,L,-25.3210,-63.3205,29.3727
1244,L,-28.7138,-64.8612,31.1945
1245,L,-37.2791,-63.8009,41.4513
1246,L,-34.1568,-63.5394,40.4124
1247,L,-35.0384,-68.4784,45.1501
1248,L,-34.0104,-81.0217,33.1535
1249,L,-31.6819,-78.9506,36.1334
1250,L,-32.3444,-81.1308,29.0471
1251,L,-33.1090,-77.1484,23.8830
1252,L,-34.7946,-81.8379,22.3184
1253,L,-35.0995,-82.9145,16.2743
1254,L,-37.1327,-84.9223,20.8468
1255,L,-43.2327,-77.3257,18.1447
1256,L,-39.8446,-81.9811,15.4383
1257,L,-39.2733,-78.0982,12.9138
1258,L,-37.0583,-78.8843,7.7258
1259,L,-20.6811,-60.5766,18.4431
1260,L,-19.8415,-66.6193,11.2257
1261,L,-20.5851,-66.7824,14.9528
1262,L,-8.8940,-73.4531,18.6065
1263,L,-8.6934,-69.6630,14.2485
1264,L,-3.4675,-73.0298,16.0027
1265,L,-3.5795,-80.3569,12.5645
1266,L,-4.6140,-80.3917,17.5132
1267,L,-16.4644,-83.7372,35.3004
1268,L,-11.7302,-81.9634,31.7613
1269,L,-10.1030,-85.0796,35.0924
1270,L,-10.1341,-94.5992,21.3214
1271,L,-7.2701,-90.4533,24.6443
1272,L,-10.3735,-91.1112,14.8808
1273,L,-5.1434,-93.3696,14.1171
1274,L,-8.6499,-97.1812,8.8742
1275,L,-7.5771,-101.5928,6.1057
1276,L,-11.1785,-101.0858,9.2201
1277,L,-26.2134,-96.2490,10.9437
1278,L,-20.5013,-97.4565,7.1185
1279,L,-23.1030,-93.7539,6.1773
1280,L,-23.1470,-91.3961,1.1829
1281,L,-26.1522,-88.8695,6.6540
1282,L,-13.4547,-23.8689,46.7569
1283,L,-15.5664,-21.1891,42.7599
1284,L,-16.4207,-26.2440,42.5820
1285,L,-15.1659,-38.2823,40.0290
1286,L,-15.6470,-32.8843,37.5058
1287,L,-11.6628,-35.1374,40.0614
1288,L,-8.0196,-32.6897,40.9165
1289,L,-6.8784,-37.1920,42.7658
1290,L,-6.0665,-52.2242,47.6926
1291,L,-8.2793,-48.5493,46.9537
1292,L,-8.1039,-52.1120,43.5989
1293,L,-11.4391,-55.8756,33.5937
1294,L,-13.7871,-51.0792,36.5102
1295,L,-15.1691,-49.7538,32.3982
1296,L,-13.4102,-43.1696,32.3944
1297,L,-12.5001,-49.2710,29.2343
1298,L,-8.1969,-49.3072,29.2585
1299,L,-11.2190,-54.4878,26.5273
1300,L,-13.5603,-62.4901,23.1334
1301,L,-5.9111,-63.6909,20.5214
1302,L,-14.0675,-60.2443,20.7491
1303,L,-13.0511,-57.7150,18.2659
1304,L,-1.0354,17.1370,4.7503
1305,L,-0.7818,7.8284,3.1402
1306,L,-0.8004,10.0960,6.9009
1307,L,-0.8343,-1.6487,14.7214
1308,L,-2.2525,-2.4148,10.2733
1309,L,-2.7164,-7.4518,12.6584
1310,L,-2.7365,-14.2414,11.2772
1311,L,-1.9633,-13.9318,14.0278
1312,L,-5.7309,-2.8687,30.8013
1313,L,-1.1725,-1.5140,28.9334
1314,L,-3.1250,-8.5311,29.6469
1315,L,-1.0794,-29.2752,25.4072
1316,L,-0.3404,-22.1960,24.3263
1317,L,0.0362,-28.9179,20.8001
1318,L,-0.8075,-28.1156,16.4034
1319,L,0.3600,-34.7730,16.2321
1320,L,1.2216,-37.5573,10.2054
1321,L,0.7016,-39.9102,16.7604
1322,L,-7.4879,-47.4347,20.3481
1323,L,-7.8308,-47.1024,16.5464
1324,L,-5.9438,-50.4840,14.1891
1325,L,-6.2422,-55.3183,8.8502
1326,L,-5.3048,-56.1314,13.2571
1327,L,-33.3636,21.4108,-19.7062
1328,L,-27.5251,20.5119,-15.9280
1329,L,-29.4618,18.4437,-21.3570
1330,L,-23.2982,9.9328,-17.2479
1331,L,-25.4473,10.4836,-16.9607
1332,L,-27.8852,4.3563,-13.4454
1333,L,-32.5930,-0.8107,-16.3075
1334,L,-30.1371,-1.6788,-14.7129
1335,L,-13.0141,4.6058,-13.9344
1336,L,-15.5631,6.6707,-15.5682
1337,L,-17.6328,-1.4322,-11.3128
1338,L,-36.1644,-12.5626,-20.0251
1339,L,-30.6231,-9.3346,-16.3408
1340,L,-35.4420,-9.2530,-23.7158
1341,L,-32.9580,-6.2089,-26.2509
1342,L,-30.6539,-9.2497,-28.8843
1343,L,-24.4662,-6.1764,-31.5391
1344,L,-27.1404,-11.8284,-29.7778
1345,L,-24.8391,-20.4612,-24.0832
1346,L,-21.1677,-15.2903,-26.7032
1347,L,-20.7828,-18.8689,-26.2140
1348,L,-25.6325,-19.5268,-29.7201
1349,L,-22.7602,-23.0391,-26.2271
1350,L,-59.1169,-10.9517,-4.9037
1351,L,-53.1640,-13.7217,-9.6824
1352,L,-54.6350,-9.6060,-9.4080
1353,L,-49.1543,-1.9670,-20.7359
1354,L,-48.9632,-6.9243,-21.0089
1355,L,-52.0116,-4.1623,-25.3908
1356,L,-57.7752,-5.9312,-25.4883
1357,L,-55.8883,-0.6563,-27.6384
1358,L,-46.8750,8.3599,-21.0631
1359,L,-49.6303,12.8231,-18.1454
1360,L,-46.6045,15.7251,-24.2056
1361,L,-36.9340,6.2057,-36.1283
1362,L,-42.8932,8.0616,-37.0813
1363,L,-42.3420,1.4408,-34.9364
1364,L,-46.0429,-2.7135,-32.9989
1365,L,-43.2861,-3.5843,-38.0106
1366,L,-46.8195,-8.3985,-40.0417
1367,L,-41.5464,-4.3739,-42.4538
1368,L,-32.6872,-3.4782,-39.1856
1369,L,-34.5346,-6.8106,-40.5341
1370,L,-33.6206,-7.8902,-36.3257
1371,L,-35.1516,-11.9992,-33.5626
1372,L,-32.4135,-9.5182,-32.0151
1373,L,-40.3805,-75.0771,0.9356
1374,L,-41.7266,-77.6179,-2.7228
1375,L,-42.1854,-71.3665,-3.1539
1376,L,-47.8003,-62.2082,-6.4806
1377,L,-43.5203,-65.2788,-4.7346
1378,L,-42.0913,-61.8269,-5.3272
1379,L,-39.2546,-65.2654,-8.8804
1380,L,-42.3916,-58.1903,-6.6749
1381,L,-57.5061,-42.1358,-11.8913
1382,L,-55.5455,-49.0923,-11.9596
1383,L,-57.4670,-44.8997,-17.0697
1384,L,-53.2802,-43.1362,-24.6468
1385,L,-53.6556,-47.4608,-21.0943
1386,L,-49.7373,-45.0765,-18.6207
1387,L,-44.9261,-48.1228,-12.7683
1388,L,-46.1808,-42.0748,-16.9354
1389,L,-42.1623,-42.3968,-17.0973
1390,L,-45.9827,-39.4625,-22.2326
1391,L,-47.8275,-24.0262,-28.5340
1392,L,-46.6266,-30.1733,-22.9565
1393,L,-45.3835,-23.4910,-24.5424
1394,L,-42.6021,-24.6100,-21.5711
1395,L,-43.3462,-16.5182,-26.4407
1396,L,-16.6637,-75.6244,9.8567
1397,L,-20.0380,-75.2397,5.3681
1398,L,-15.3712,-78.5779,6.6739
1399,L,-3.1666,-80.9194,1.0894
1400,L,-3.7639,-75.7711,4.9795
1401,L,-4.7094,-74.9856,1.0609
1402,L,-7.9012,-70.5975,-0.0930
1403,L,-8.4840,-74.6264,-4.1077
1404,L,-11.8284,-93.9942,-10.1954
1405,L,-8.1241,-91.4632,-12.3162
1406,L,-14.1854,-88.1540,-10.0718
1407,L,-24.3542,-73.7851,-4.2886
1408,L,-18.8822,-77.4424,-7.9967
1409,L,-21.7546,-69.3787,-8.3995
1410,L,-18.8887,-65.0846,-11.3086
1411,L,-24.8287,-61.2716,-8.9513
1412,L,-28.0504,-56.4471,-6.8965
1413,L,-29.9794,-59.9209,-7.3153
1414,L,-30.0931,-50.4189,-17.5632
1415,L,-26.4032,-50.0147,-15.9285
1416,L,-29.2917,-43.1946,-20.4337
1417,L,-30.5119,-37.1448,-22.9605
1418,L,-34.6211,-38.1016,-23.8017
1419,L,-2.2951,-9.2478,-0.6529
1420,L,-2.5008,-12.8375,-5.9838
1421,L,-2.0193,-18.5077,-4.9208
1422,L,-12.8015,-28.2578,-5.9356
1423,L,-9.8302,-25.1274,-8.8436
1424,L,-15.6405,-26.8221,-8.4139
1425,L,-18.6761,-26.0725,-10.1627
1426,L,-23.9237,-30.8582,-7.5860
1427,L,-17.8918,-41.7261,1.6177
1428,L,-21.4842,-38.5601,3.5930
1429,L,-21.7457,-41.7352,0.1582
1430,L,-23.2939,-37.0520,-9.6974
1431,L,-29.1704,-39.9560,-5.2416
1432,L,-31.2907,-38.5104,-9.0677
1433,L,-36.2698,-36.9720,-7.8711
1434,L,-31.5108,-35.5578,-12.7493
1435,L,-31.6725,-32.3566,-15.3222
1436,L,-25.0105,-31.7920,-14.7014
1437,L,-30.5738,-39.3142,-11.5830
1438,L,-25.2532,-34.0803,-17.4885
1439,L,-31.8397,-35.0128,-15.0299
1440,L,-31.9912,-30.4449,-18.0326
1441,L,-36.6833,-36.7832,-14.8867
1442,L,-39.5508,-11.6571,52.8161
1443,L,-43.7107,-8.8655,53.1583
1444,L,-42.0023,-8.5999,57.1910
1445,L,-36.9180,-8.8633,55.1224
1446,L,-31.4851,-11.1165,50.2681
1447,L,-34.9110,-27.0472,46.5681
1448,L,-35.5564,-24.8236,45.1127
1449,L,-35.1741,-22.0111,49.5554
1450,L,-35.3121,-16.1232,52.8507
1451,L,-23.9025,-25.1163,52.8349
1452,L,-25.7214,-28.8120,50.6471
1453,L,-27.9263,-25.4385,50.5581
1454,L,-31.2725,-26.4268,48.4386
1455,L,-27.2115,-15.8410,66.7207
1456,L,-25.7173,-19.2103,70.0980
1457,L,-28.6108,-20.7899,68.4134
1458,L,-26.3851,-22.9237,60.9346
1459,L,-27.2449,-12.2515,48.8339
1460,L,-30.6252,-13.2468,55.4291
1461,L,-29.3385,-13.7866,61.7154
1462,L,-19.5472,57.5522,16.8032
1463,L,-14.6232,57.3562,18.8439
1464,L,-18.7830,53.9167,22.1586
1465,L,-17.9630,49.4555,29.7065
1466,L,-17.8195,46.7444,34.8571
1467,L,-29.1478,46.1183,13.2864
1468,L,-24.0010,47.3595,8.4134
1469,L,-24.8419,49.8645,13.8738
1470,L,-23.6275,55.2194,15.9515
1471,L,-34.9303,37.8775,27.1077
1472,L,-37.5522,41.8345,24.8391
1473,L,-32.7923,40.8718,20.3347
1474,L,-31.0943,45.6290,17.6617
1475,L,-50.8489,-9.6369,13.8191
1476,L,-47.3073,-9.3143,12.3579
1477,L,-50.1003,-5.8848,7.3437
1478,L,-52.1345,0.6663,4.8755
1479,L,-52.7919,5.6998,0.9123
1480,L,-63.3604,-12.5322,14.6113
1481,L,-60.4828,-16.2781,15.2366
1482,L,-60.0918,-11.5524,12.7258
1483,L,-55.6305,-10.4711,13.3539
1484,L,-49.3874,-57.8190,38.3653
1485,L,-49.8954,-58.2900,33.9721
1486,L,-48.6803,-54.1525,36.0286
1487,L,-49.6841,-50.3569,34.7055
1488,L,-53.7819,-49.1579,34.1278
1489,L,-42.4587,-50.3458,38.0350
1490,L,-44.1092,-54.1123,37.7386
1491,L,-46.5494,-53.6189,40.8177
1492,L,-49.6921,-56.3035,42.5802
1493,L,-8.1063,-72.8541,51.0142
1494,L,-10.7914,-75.9132,47.0412
1495,L,-12.0344,-73.5446,48.9463
1496,L,-15.3081,-70.6838,46.9459
1497,L,-16.8587,-67.3723,43.8978
1498,L,-12.1953,-56.5669,58.3762
1499,L,-11.4709,-57.0131,56.2478
1500,L,-11.1443,-62.2260,57.7406
1501,L,-7.5699,-67.9397,56.0389
1502,L,-10.0029,1.3922,39.0192
1503,L,-6.4922,-0.9255,39.6320
1504,L,-9.6690,-4.7920,40.2824
1505,L,-9.9224,-10.4153,40.6492
1506,L,-11.0226,-15.9266,38.3742
1507,L,-6.2145,19.9446,-16.3141
1508,L,-6.2329,14.4149,-14.8632
1509,L,-6.2710,10.2382,-9.8949
1510,L,-3.9380,-1.9376,-10.8122
1511,L,-3.2789,-13.2130,-13.4110
1512,L,-37.4232,4.1056,-4.0047
1513,L,-36.6210,-0.3598,-8.8113
1514,L,-36.3428,7.0890,-6.3960
1515,L,-35.0490,9.2471,-8.9529
1516,L,-32.8541,9.8719,-11.8535
1517,L,-48.9901,-35.4978,-7.9390
1518,L,-54.0633,-34.0864,-10.5689
1519,L,-49.5956,-30.0093,-10.8872
1520,L,-51.3458,-25.3027,-13.4203
1521,L,-53.5872,-20.8856,-15.7845
1522,L,-24.5159,-98.3937,-6.8870
1523,L,-23.1837,-97.3702,-14.5983
1524,L,-27.2822,-95.6790,-10.5443
1525,L,-33.6678,-89.8909,-10.7109
1526,L,-41.5799,-84.8252,-10.8233
1527,L,-10.8683,-51.2936,5.7082
1528,L,-14.1464,-50.7366,3.9249
1529,L,-19.5097,-54.5574,5.6755
1530,L,-25.1595,-59.4561,3.0066
1531,L,-22.3181,-65.2713,0.2741
1532,L,-57.7907,0.4291,29.9747
1533,L,-56.0144,5.3623,29.2966
1534,L,-55.3956,2.9578,32.8549
1535,L,-48.9857,-0.1863,31.4889
1536,L,-41.9161,-1.8804,32.4271
1537,L,-39.0129,4.7506,51.1215
1538,L,-39.7736,8.8241,46.8053
1539,L,-40.1683,10.9023,50.8193
1540,L,-39.4975,17.2946,47.9723
1541,L,-36.9234,22.8076,44.9988
1542,L,-36.1780,26.1400,41.0681
1543,L,-33.8093,24.9106,45.8601
1544,L,-30.8013,22.6205,41.6243
1545,L,-27.5628,21.5510,36.5777
1546,L,-38.4739,-30.2685,36.8997
1547,L,-41.8566,-31.0822,34.7202
1548,L,-41.7973,-27.5545,38.0102
1549,L,-45.6618,-25.8759,39.6167
1550,L,-49.8384,-25.1062,41.1338
1551,L,-39.0158,-19.9472,33.7037
1552,L,-45.3649,-20.4678,36.5256
1553,L,-41.8052,-16.5950,31.0152
1554,L,-44.9096,-14.1155,28.4215
1555,L,-49.0126,-12.9272,26.6238
1556,L,-52.9680,-12.0689,25.3493
1557,L,-48.2040,-8.4017,24.0959
1558,L,-52.5269,-4.1129,26.8028
1559,L,-20.2326,-47.7908,59.1551
1560,L,-24.8560,-50.6559,59.8998
1561,L,-23.1594,-47.3455,58.0398
1562,L,-24.5024,-45.8311,57.6857
1563,L,-26.6063,-44.2418,55.6703
1564,L,-40.6161,-32.5591,61.8654
1565,L,-36.8517,-34.7030,58.4301
1566,L,-40.8860,-34.4605,56.1050
1567,L,-37.9016,-35.5805,50.1430
1568,L,-32.6027,-35.9457,44.2098
1569,L,-31.0493,-38.5781,40.3703
1570,L,-33.9761,-33.9278,41.1061
1571,L,-35.6999,-31.6910,38.9794
1572,L,-9.4866,-10.3909,61.3428
1573,L,-5.8715,-15.8781,60.0991
1574,L,-6.0360,-14.5365,63.9590
1575,L,-6.0264,-18.6706,66.4557
1576,L,-6.2746,-23.8932,67.5264
1577,L,-10.5468,-34.9511,61.7126
1578,L,-7.4379,-35.8144,65.0258
1579,L,-11.3377,-36.9900,68.7404
1580,L,-10.7505,-36.6161,75.0889
1581,L,-14.3569,-40.9148,74.9271
1582,L,-16.3586,-45.9615,72.9101
1583,L,-18.4099,-43.2178,71.6443
1584,L,-19.7122,-45.8222,65.2235
1585,L,-22.6131,24.1763,34.2667
1586,L,-24.3877,18.2119,37.5998
1587,L,-21.9672,17.6342,41.9314
1588,L,-22.0886,19.0124,48.0424
1589,L,-18.9523,-3.0192,61.2098
1590,L,-19.8189,3.8066,61.1695
1591,L,-19.3018,0.8284,66.3417
1592,L,-16.8605,3.5786,67.0239
1593,L,-12.2724,4.8448,65.9105
1594,L,-8.8944,6.3635,66.9110
1595,L,-10.0251,0.4295,67.6269
1596,L,-10.2026,-4.1190,63.0182
1597,L,-8.9306,40.0819,-5.4624
1598,L,-5.2442,38.6466,-4.2776
1599,L,-7.3089,42.8776,-1.9417
1600,L,-9.0250,42.0987,2.4096
1601,L,-11.5551,40.0375,7.2679
1602,L,-8.1771,47.8814,31.3130
1603,L,-7.7271,43.8616,26.6398
1604,L,-8.1985,40.4304,32.5250
1605,L,-8.5443,34.0521,34.9690
1606,L,-8.2335,27.4156,35.7207
1607,L,-10.6597,21.7353,37.5926
1608,L,-8.3786,23.5912,40.5329
1609,L,-7.7833,19.6130,45.3419
1610,L,-9.1386,17.0661,50.4236
1611,L,-44.1349,37.7538,-14.9880
1612,L,-40.2094,35.3256,-12.8339
1613,L,-38.8311,40.8500,-12.5577
1614,L,-32.5466,42.9570,-11.3816
1615,L,-28.2115,45.7091,-11.2293
1616,L,-12.0364,64.0369,-6.4519
1617,L,-10.7002,58.1169,-10.7931
1618,L,-6.1140,63.4614,-10.5906
1619,L,-5.6106,57.6563,-13.3854
1620,L,-6.8772,50.3599,-15.9518
1621,L,-6.6333,44.4843,-17.1789
1622,L,-8.1621,46.0034,-11.4486
1623,L,-12.2175,41.6898,-8.3814
1624,L,-40.3201,9.8383,21.6238
1625,L,-45.3518,11.3446,19.1378
1626,L,-42.9793,13.7905,23.0150
1627,L,-46.8176,17.1582,21.2016
1628,L,-49.2187,21.4871,18.0943
1629,L,-37.8061,41.6107,6.8339
1630,L,-38.3902,35.9678,6.6568
1631,L,-40.6014,39.4895,2.6580
1632,L,-45.2047,38.5141,0.1336
1633,L,-49.2032,35.4864,-3.4372
1634,L,-47.8394,32.7998,-4.5247
1635,L,-47.7716,36.0211,-7.0670
1636,L,-46.8584,36.5180,-12.1842
1637,L,-46.3797,-26.3597,1.9146
1638,L,-50.4426,-21.6736,2.2549
1639,L,-45.8967,-26.2934,6.5015
1640,L,-42.9005,-24.8339,8.9006
1641,L,-38.5896,-26.3574,5.6294
1642,L,-37.9923,-2.8988,17.2610
1643,L,-34.0086,-8.9640,14.6598
1644,L,-35.1788,-1.4710,15.6869
1645,L,-33.3119,-0.2786,13.0496
1646,L,-33.0636,0.9173,9.8993
1647,L,-33.5993,1.7528,7.0115
1648,L,-30.8033,9.5404,11.0074
1649,L,-29.5095,17.2463,11.6300
1650,L,-30.1463,24.3207,10.5553
1651,L,-59.6677,-31.9359,36.5760
1652,L,-58.8666,-35.7684,38.0118
1653,L,-60.9413,-33.8237,34.2764
1654,L,-58.4461,-34.7567,30.9873
1655,L,-54.9501,-36.1497,28.8290
1656,L,-44.9418,-29.2965,20.8126
1657,L,-45.1209,-33.1488,17.5044
1658,L,-40.3332,-34.2918,18.2598
1659,L,-39.0188,-38.8022,15.6373
1660,L,-43.1608,-38.4714,10.6616
1661,L,-48.4107,-35.5755,8.3865
1662,L,-43.4035,-35.2477,6.3998
1663,L,-44.3556,-31.2550,2.8156
1664,L,-42.4693,-73.5567,18.1758
1665,L,-44.6238,-73.4242,13.5231
1666,L,-40.9835,-70.2197,16.9927
1667,L,-41.0626,-67.1134,15.0816
1668,L,-42.1953,-64.3549,12.7677
1669,L,-48.3030,-52.2856,20.9790
1670,L,-42.8496,-51.4419,18.0489
1671,L,-48.1187,-50.1699,16.3426
1672,L,-48.9356,-47.4752,12.2185
1673,L,-49.2976,-45.3480,7.8879
1674,L,-49.2126,-43.7463,4.4712
1675,L,-53.6636,-43.2863,7.2333
1676,L,-58.5355,-40.9905,6.6450
1677,L,-63.4394,-37.6140,6.5753
1678,L,-26.7790,-56.5073,50.8991
1679,L,-25.4178,-59.8504,48.2614
1680,L,-26.0016,-58.1654,45.9795
1681,L,-28.0679,-60.8589,43.3372
1682,L,-29.2552,-63.2985,41.3022
1683,L,-39.3298,-69.6553,44.0932
1684,L,-35.6714,-72.5883,45.5580
1685,L,-36.7196,-73.9741,39.2704
1686,L,-37.6118,-76.8095,33.7739
1687,L,-37.5397,-77.5254,29.0964
1688,L,-39.1466,-81.5407,23.8830
1689,L,-39.9305,-75.4859,26.0651
1690,L,-41.0777,-74.4373,22.3911
1691,L,-18.7146,-62.9136,25.7356
1692,L,-20.8671,-69.2137,18.4778
1693,L,-19.9361,-70.8999,21.6121
1694,L,-15.0593,-76.4222,19.1882
1695,L,-9.3548,-77.9548,21.8792
1696,L,-19.1926,-86.6645,31.9431
1697,L,-11.9056,-85.6520,31.0502
1698,L,-14.2664,-86.5551,25.7954
1699,L,-13.3581,-91.5299,22.6115
1700,L,-14.3726,-95.9865,18.5950
1701,L,-15.4606,-99.2506,14.1305
1702,L,-19.0809,-94.8833,15.8268
1703,L,-23.7251,-92.6909,13.6929
1704,L,-28.3784,-90.8870,13.0061
1705,L,-14.5749,-32.5567,48.3564
1706,L,-17.3622,-31.7446,43.5383
1707,L,-18.1422,-36.8038,45.7387
1708,L,-17.6729,-40.8727,43.3081
1709,L,-12.8515,-41.7970,43.5526
1710,L,-7.4974,-59.2988,41.5936
1711,L,-8.0757,-55.1322,40.2434
1712,L,-7.0974,-59.3163,38.0433
1713,L,-6.3701,-59.6009,34.0728
1714,L,-6.8435,-61.1103,30.1383
1715,L,-6.3765,-60.3553,26.8390
1716,L,-4.1672,-66.4642,26.4575
1717,L,-11.0036,-64.2762,26.0586
1718,L,-0.7402,19.0026,12.8902
1719,L,-0.6525,11.4967,10.9163
1720,L,-0.6011,12.1675,14.9966
1721,L,-0.7029,5.2760,17.2425
1722,L,-0.6411,-0.6642,19.3081
1723,L,-6.9620,-16.3931,31.4924
1724,L,-5.3805,-15.8294,29.4222
1725,L,-7.0269,-22.2176,29.0564
1726,L,-5.8144,-28.7614,27.2065
1727,L,-4.2393,-35.2035,25.1558
1728,L,-2.7097,-39.8816,22.0682
1729,L,-7.6932,-39.3463,24.7273
1730,L,-8.3577,-43.5039,24.5666
1731,L,-4.4731,-47.1302,23.7046
1732,L,-24.5861,23.5881,-16.2158
1733,L,-26.7876,18.3164,-22.9202
1734,L,-22.3013,18.9134,-18.7079
1735,L,-19.8709,13.5067,-21.0872
1736,L,-20.9328,9.4747,-16.8002
1737,L,-18.0743,-10.7609,-12.5681
1738,L,-20.5766,-8.4943,-11.2447
1739,L,-25.8501,-14.0706,-11.9800
1740,L,-35.2555,-15.8303,-16.4135
1741,L,-36.8495,-16.2298,-21.9861
1742,L,-31.3414,-16.2497,-25.9214
1743,L,-34.7440,-19.8777,-22.1651
1744,L,-32.0480,-22.8859,-21.8455
1745,L,-28.8545,-25.0864,-20.9583
1746,L,-58.5632,-3.1939,-3.2700
1747,L,-55.7802,-4.4323,-8.2071
1748,L,-57.6345,0.0573,-7.9895
1749,L,-54.9670,2.3191,-13.3926
1750,L,-51.7207,3.4235,-19.8165
1751,L,-39.6863,13.9672,-30.1817
1752,L,-41.8742,17.6857,-30.2696
1753,L,-36.1730,17.5812,-35.4973
1754,L,-33.7067,12.7954,-38.9240
1755,L,-34.3752,4.0358,-38.8312
1756,L,-36.4792,-0.7799,-43.2748
1757,L,-32.4786,2.4794,-41.0882
1758,L,-30.6388,0.6110,-42.1573
1759,L,-30.0906,-0.5549,-37.0992
1760,L,-45.0255,-63.5802,-1.2055
1761,L,-45.1230,-66.2475,-3.1990
1762,L,-49.5733,-64.6619,-4.0977
1763,L,-51.2223,-62.5091,-6.2814
1764,L,-52.1233,-60.4137,-9.3970
1765,L,-57.6971,-32.3796,-17.5840
1766,L,-55.9652,-39.7484,-18.1145
1767,L,-52.4235,-34.7236,-19.0913
1768,L,-54.3588,-36.3479,-24.8731
1769,L,-53.7674,-37.8183,-27.5192
1770,L,-49.9642,-36.8733,-26.0293
1771,L,-53.2697,-31.2099,-28.9766
1772,L,-51.6822,-24.5458,-31.2830
1773,L,-48.9953,-18.3120,-34.0398
1774,L,-12.3765,-83.7457,10.6751
1775,L,-12.8160,-81.3063,5.7526
1776,L,-11.9662,-84.1978,3.1487
1777,L,-5.9976,-85.5840,-0.0821
1778,L,-3.1659,-85.0483,-3.9611
1779,L,-23.0952,-84.6635,-11.7387
1780,L,-19.8601,-84.8762,-8.3986
1781,L,-26.6280,-80.8288,-7.8442
1782,L,-28.3233,-75.7274,-7.0621
1783,L,-30.3339,-69.2263,-7.4908
1784,L,-31.1169,-63.1720,-9.4013
1785,L,-29.4009,-64.3129,-14.0254
1786,L,-32.0982,-56.4010,-16.2921
1787,L,-36.6513,-48.5692,-19.8472
1788,L,-2.5145,-19.2834,2.7322
1789,L,-3.0671,-22.4611,-2.7468
1790,L,-4.3008,-25.4873,-0.2709
1791,L,-9.9665,-29.0586,-2.5737
1792,L,-15.9267,-33.0472,-4.1431
1793,L,-14.7709,-41.7825,-5.9702
1794,L,-18.4204,-40.2302,-4.4718
1795,L,-14.8045,-38.9429,-8.2577
1796,L,-16.0464,-36.5648,-10.3951
1797,L,-17.4014,-33.9149,-12.5838
1798,L,-18.6851,-32.1267,-14.7077
1799,L,-22.2469,-39.3093,-12.0467
1800,L,-27.8787,-42.4229,-8.5916
1801,L,-32.3962,-45.1749,-6.9272
1802,L,-50.3663,-7.9263,41.8286
1803,L,-53.8700,-3.6562,42.9017
1804,L,-52.3258,-5.6039,46.3719
1805,L,-49.2448,-0.8971,47.1044
1806,L,-44.9398,1.3477,47.4237
1807,L,-43.0355,-7.4664,47.4963
1808,L,-42.3213,-2.6830,44.1010
1809,L,-40.3326,1.0635,48.3558
1810,L,-36.3965,1.8491,50.7307
1811,L,-32.7720,2.5217,53.4297
1812,L,-29.4858,4.9760,54.4806
1813,L,-48.4741,-23.3838,58.0642
1814,L,-50.1031,-20.5167,55.6092
1815,L,-47.1766,-18.7239,56.1082
1816,L,-44.2265,-20.1212,49.1943
1817,L,-39.7360,-21.6486,42.2340
1818,L,-33.4300,-22.5254,43.6697
1819,L,-33.6479,-21.3195,40.0484
1820,L,-36.2159,-21.3465,36.3420
1821,L,-37.2895,-16.0208,35.7789
1822,L,-43.4842,-12.1485,38.6830
1823,L,-22.8648,-32.0457,71.2947
1824,L,-24.7303,-34.2979,67.0218
1825,L,-26.6374,-31.1350,69.4625
1826,L,-30.7340,-30.6164,68.1620
1827,L,-34.7890,-30.9353,66.7481
1828,L,-30.0344,-30.7267,55.7136
1829,L,-35.5055,-30.6721,62.2623
1830,L,-39.1123,-30.3338,65.1989
1831,L,-42.7220,-28.5360,62.8550
1832,L,-45.9231,-25.9072,60.6039
1833,L,-12.9697,-13.2260,65.2130
1834,L,-11.1165,-15.8918,69.1630
1835,L,-13.4577,-18.5017,67.4862
1836,L,-15.4962,-20.8918,72.3781
1837,L,-14.8238,-25.0148,70.1043
1838,L,-21.8026,-22.6815,68.7866
1839,L,-16.4985,-24.9551,65.4709
1840,L,-12.3889,-30.0314,61.3946
1841,L,-14.2309,-34.2841,59.5914
1842,L,-18.3441,-32.7701,65.5474
1843,L,-26.8437,7.7088,52.3754
1844,L,-26.3925,3.0991,49.1378
1845,L,-21.9977,0.9559,47.3221
1846,L,-19.8763,-2.4891,51.5933
1847,L,-23.2810,-10.9539,49.4874
1848,L,-21.0865,-8.3615,52.6142
1849,L,-19.4059,-5.5952,56.6201
1850,L,-19.2469,-8.6784,60.6669
1851,L,-16.0435,-10.2336,62.5606
1852,L,-8.8650,58.8534,4.1253
1853,L,-10.3656,54.2373,7.6909
1854,L,-8.8191,58.7943,10.7029
1855,L,-7.6695,58.3342,17.0042
1856,L,-7.5690,56.2126,23.2846
1857,L,-10.9979,59.2739,23.5202
1858,L,-7.7437,58.1568,27.7109
1859,L,-7.0698,54.1937,30.2942
1860,L,-6.3993,50.1589,36.6587
1861,L,-5.9502,44.9195,43.4218
1862,L,-7.5761,39.9295,49.0710
1863,L,-37.4418,53.1393,0.1531
1864,L,-35.4867,55.0150,-3.8631
1865,L,-32.4267,52.0319,-1.5056
1866,L,-25.0977,51.2491,-2.6387
1867,L,-19.8002,56.1176,-1.7726
1868,L,-21.6181,53.2203,4.8079
1869,L,-21.2365,58.9257,1.5173
1870,L,-17.5821,62.7772,-2.7383
1871,L,-11.2252,63.7307,-1.0081
1872,L,-7.3224,63.6956,2.3213
1873,L,-42.0874,27.5874,26.2706
1874,L,-41.0861,28.4680,22.9545
1875,L,-45.3377,31.8498,23.3939
1876,L,-42.5337,34.4061,20.8230
1877,L,-37.3872,37.2541,17.5559
1878,L,-39.5594,43.6399,20.6108
1879,L,-36.9340,42.2618,16.2506
1880,L,-36.4390,41.6945,11.4097
1881,L,-38.5613,45.6537,7.6340
1882,L,-39.8178,50.3137,3.7366
1883,L,-33.8485,-28.3905,20.7497
1884,L,-31.5202,-27.7086,17.5054
1885,L,-34.8644,-22.7800,20.5218
1886,L,-36.8973,-16.3523,20.5853
1887,L,-38.3263,-10.6242,17.9769
1888,L,-44.3977,-8.1684,12.3524
1889,L,-43.4504,-6.2534,15.4932
1890,L,-40.9372,-4.3335,17.2171
1891,L,-40.8782,1.3475,13.8602
1892,L,-40.9150,7.5979,10.1874
1893,L,-40.0302,13.1878,7.3143
1894,L,-57.4930,-23.0202,25.4302
1895,L,-60.2506,-27.0381,22.4131
1896,L,-58.2597,-24.1905,21.8114
1897,L,-56.0347,-24.7565,20.3340
1898,L,-52.0890,-25.1973,21.4157
1899,L,-54.8803,-17.5828,16.4687
1900,L,-50.1939,-19.6836,20.4236
1901,L,-47.5896,-24.7109,21.6990
1902,L,-43.2171,-25.4214,21.9710
1903,L,-38.4403,-27.1543,22.0938
1904,L,-39.0321,-65.9930,31.0514
1905,L,-38.3942,-63.9373,26.8695
1906,L,-39.5118,-61.7230,30.0728
1907,L,-42.4743,-58.6385,27.4001
1908,L,-45.4036,-56.5119,25.2031
1909,L,-51.8017,-58.5222,29.7388
1910,L,-50.7646,-57.5628,25.9563
1911,L,-48.9516,-54.8594,23.4189
1912,L,-53.3193,-54.7370,21.7147
1913,L,-57.3200,-53.6225,19.6005
1914,L,-60.4715,-50.9188,18.6071
1915,L,-29.6614,-50.7889,35.3118
1916,L,-30.2352,-54.9720,35.6670
1917,L,-33.5559,-54.8144,34.3753
1918,L,-37.0683,-58.6590,38.5882
1919,L,-39.8534,-62.8122,43.1214
1920,L,-43.8586,-58.9393,39.7710
1921,L,-42.7342,-62.6801,44.4689
1922,L,-41.2640,-66.2869,45.6061
1923,L,-41.1229,-67.4119,41.1558
1924,L,-40.1340,-66.6420,35.8273
1925,L,-9.6655,-70.0356,37.6697
1926,L,-16.0408,-70.7501,33.9902
1927,L,-14.7116,-71.6710,37.8027
1928,L,-17.0749,-76.7932,37.2738
1929,L,-18.2553,-81.8338,39.0560
1930,L,-15.7234,-76.8219,45.3448
1931,L,-19.2464,-79.6363,43.0907
1932,L,-20.7093,-83.7862,37.9121
1933,L,-22.2737,-82.8170,32.2263
1934,L,-23.7953,-79.3981,26.2532
1935,L,-25.3878,-74.9777,21.8629
1936,L,-12.0029,-48.2100,57.1205
1937,L,-10.5158,-47.4980,52.8451
1938,L,-6.7133,-48.7178,55.0085
1939,L,-6.3808,-52.4397,52.0180
1940,L,-8.2852,-54.6266,48.8926
1941,L,-11.0139,-57.2397,53.4604
1942,L,-11.9476,-57.7536,49.5838
1943,L,-10.5522,-58.8483,45.4094
1944,L,-6.3861,-63.2338,43.2094
1945,L,-5.0005,-69.8298,39.5179
1946,L,-6.2358,14.9717,26.7937
1947,L,-5.0206,10.5947,26.5475
1948,L,-6.4496,8.7271,29.3623
1949,L,-6.2626,2.1655,31.5534
1950,L,-5.9897,-4.7362,32.8648
1951,L,-4.3089,-3.7120,38.6232
1952,L,-3.6724,-7.3651,34.8658
1953,L,-5.0694,-11.7948,32.7901
1954,L,-4.0941,-18.3349,32.4150
1955,L,-4.0010,-24.3223,32.7530
1956,L,-4.4382,-29.4496,33.6339
1957,L,-12.0301,28.2641,-18.1579
1958,L,-14.6877,22.5033,-16.6103
1959,L,-11.1240,21.5132,-16.1350
1960,L,-10.2606,12.5850,-15.7821
1961,L,-11.7742,1.4102,-12.0318
1962,L,-7.7766,5.1229,-12.5408
1963,L,-8.9927,-0.9303,-15.8373
1964,L,-13.4812,-6.1818,-14.1755
1965,L,-15.8519,-13.2936,-14.6147
1966,L,-19.3685,-18.7234,-14.0943
1967,L,-26.4698,-23.1162,-11.4746
1968,L,-45.1537,-11.8489,-14.0777
1969,L,-49.0247,-2.8801,-13.6288
1970,L,-46.0482,-6.7341,-16.7021
1971,L,-46.1321,-1.3440,-19.7686
1972,L,-45.0106,3.5593,-23.2387
1973,L,-38.1867,-3.5796,-16.9116
1974,L,-41.6510,-0.4408,-23.7989
1975,L,-42.2756,7.5825,-26.7330
1976,L,-38.5430,8.6343,-30.2299
1977,L,-34.6505,7.4664,-32.5382
1978,L,-30.5341,4.7789,-32.2996
1979,L,-62.8776,-50.1547,-1.9407
1980,L,-58.9027,-49.9144,-4.8435
1981,L,-62.4795,-44.7978,-5.7687
1982,L,-61.9733,-42.0921,-9.9330
1983,L,-61.6779,-37.7073,-13.7154
1984,L,-59.2652,-32.6261,-12.6455
1985,L,-63.5263,-32.1369,-13.8296
1986,L,-62.6484,-32.3070,-17.4241
1987,L,-61.4338,-26.8755,-18.1651
1988,L,-58.8697,-20.5882,-19.9450
1989,L,-58.0329,-16.9795,-24.4376
1990,L,-14.3713,-95.2757,0.0608
1991,L,-11.6085,-94.3069,-5.6415
1992,L,-13.5201,-96.5147,-8.3352
1993,L,-12.1130,-97.1651,-13.5562
1994,L,-17.2502,-94.0089,-10.6518
1995,L,-23.1273,-94.9345,-17.0766
1996,L,-23.6003,-91.1317,-12.5873
1997,L,-22.6330,-87.6383,-13.2136
1998,L,-29.2059,-83.3679,-13.5993
1999,L,-35.4186,-77.0639,-14.0724
2000,L,-41.5034,-71.1862,-17.2798
2001,L,-7.1729,-34.7288,8.0037
2002,L,-11.7572,-34.7585,5.4969
2003,L,-11.6600,-37.6795,4.9840
2004,L,-14.8017,-41.3748,3.1422
2005,L,-12.7758,-42.3539,-0.5492
2006,L,-16.3061,-49.3535,1.2817
2007,L,-17.0324,-47.4868,-1.4701
2008,L,-15.8527,-44.6109,-3.7882
2009,L,-17.2471,-49.9344,-5.5827
2010,L,-12.4015,-52.9167,-4.0352
2011,L,-14.1882,-58.7363,-4.3728
2012,L,-57.9891,0.9739,14.0996
2013,L,-57.7342,4.3913,11.2954
2014,L,-57.7643,5.1639,15.9117
2015,L,-52.8263,3.7513,18.1836
2016,L,-46.6362,2.9848,19.3276
2017,L,-50.7468,3.8400,25.5882
2018,L,-45.5769,2.5584,22.7508
2019,L,-40.6121,4.7695,20.6737
2020,L,-36.3244,8.7465,23.1163
2021,L,-33.9184,14.4092,24.7868
2022,L,-35.5673,19.6755,27.1446
2023,L,-48.3767,-1.8228,40.4466
2024,L,-41.2151,-0.8137,36.8635
2025,L,-37.4014,2.2259,34.9907
2026,L,-39.9211,10.1758,41.6826
2027,L,-37.8459,9.5730,37.0360
2028,L,-35.0378,7.5107,33.4183
2029,L,-35.7501,13.6739,32.2041
2030,L,-38.5309,18.7687,30.8722
2031,L,-41.0382,23.8000,28.2404
2032,L,-45.3507,26.7657,28.8578
2033,L,-43.4954,29.3454,29.3391
2034,L,-38.4215,31.1331,29.1621
2035,L,-34.6658,29.2536,37.6262
2036,L,-33.4465,31.2542,34.8001
2037,L,-34.0792,33.3905,29.7578
2038,L,-30.8845,33.2254,28.4726
2039,L,-25.6013,33.3095,26.0108
2040,L,-23.7664,38.7019,27.7722
2041,L,-48.1324,-44.9718,43.0043
2042,L,-51.2725,-45.2623,45.7027
2043,L,-49.8677,-41.4788,44.0552
2044,L,-51.3341,-38.5601,43.9320
2045,L,-53.3616,-35.3886,40.6908
2046,L,-46.0216,-32.8247,34.9000
2047,L,-50.7757,-33.4331,36.2892
2048,L,-55.6892,-32.4442,37.3670
2049,L,-56.9252,-29.6993,35.1703
2050,L,-57.1348,-27.8920,31.9688
2051,L,-55.7691,-25.4204,29.4952
2052,L,-52.7962,-20.7596,51.8843
2053,L,-54.5638,-22.3768,47.8292
2054,L,-54.5063,-22.8256,43.4534
2055,L,-52.6162,-18.1869,41.5901
2056,L,-57.2003,-18.1122,43.2000
2057,L,-54.3857,-20.7579,38.6938
2058,L,-54.6384,-19.5748,34.2746
2059,L,-54.9441,-19.8454,30.2445
2060,L,-56.0460,-20.9471,27.6013
2061,L,-59.4216,-17.3581,26.8036
2062,L,-62.1330,-14.1889,25.4284
2063,L,-63.6906,-11.2610,22.3658
2064,L,-57.2403,-11.1107,23.9432
2065,L,-60.7865,-9.8070,21.3490
2066,L,-63.3655,-9.9139,17.9582
2067,L,-61.2253,-8.9272,13.9781
2068,L,-58.5611,-4.3331,13.4015
2069,L,-18.3313,-62.4755,62.1783
2070,L,-18.8580,-65.2986,58.2461
2071,L,-21.2673,-62.1947,61.5690
2072,L,-23.9469,-59.7962,59.8447
2073,L,-26.7942,-57.7737,58.2446
2074,L,-28.7559,-53.1071,63.7046
2075,L,-31.2829,-55.4325,61.1761
2076,L,-29.6676,-56.4985,56.1909
2077,L,-30.6943,-54.6293,53.5419
2078,L,-30.3957,-52.0175,50.3158
2079,L,-29.8106,-50.3079,46.1051
2080,L,-24.3598,-35.9840,58.7901
2081,L,-24.9330,-38.6388,52.4097
2082,L,-28.2374,-43.1579,52.8764
2083,L,-32.9923,-36.9767,54.2823
2084,L,-30.7464,-41.5388,51.6746
2085,L,-34.4640,-45.3043,55.4593
2086,L,-37.9169,-47.8116,53.2075
2087,L,-33.0459,-48.4154,47.7169
2088,L,-29.6130,-48.3805,40.8531
2089,L,-30.7954,-47.0724,37.0832
2090,L,-33.8481,-46.4093,34.7057
2091,L,-37.6330,-46.1333,34.2998
2092,L,-34.1888,-41.1837,38.9397
2093,L,-38.3936,-43.3194,37.3002
2094,L,-41.2710,-46.3783,35.8157
2095,L,-43.6560,-46.1691,38.7366
2096,L,-45.7530,-45.7093,41.2146
2097,L,-8.5509,-9.2775,50.2956
2098,L,-11.7077,-14.2356,47.9338
2099,L,-8.4149,-15.3044,49.9376
2100,L,-8.6333,-20.3707,48.8101
2101,L,-9.9449,-24.6893,50.0712
2102,L,-7.2256,-20.5239,57.3576
2103,L,-8.1010,-25.6853,53.5070
2104,L,-8.9605,-29.1437,49.8041
2105,L,-9.4605,-32.9236,51.4312
2106,L,-12.3261,-36.8113,54.0892
2107,L,-15.2921,-39.9253,57.0304
2108,L,-8.5085,-18.5289,72.8049
2109,L,-6.2771,-23.8923,71.6909
2110,L,-4.0686,-29.0710,66.9054
2111,L,-5.0505,-35.3616,68.4420
2112,L,-3.0179,-35.4140,66.8044
2113,L,-4.1868,-35.1829,62.5941
2114,L,-5.4705,-40.0514,60.1856
2115,L,-12.8595,-40.0500,61.0330
2116,L,-15.7225,-44.7340,60.1862
2117,L,-12.5181,-48.7406,61.8144
2118,L,-7.7297,-50.9047,64.6274
2119,L,-8.4102,-53.8611,64.5008
2120,L,-14.1835,-50.3926,70.6623
2121,L,-12.2916,-53.7909,66.5411
2122,L,-11.6937,-54.7266,61.4539
2123,L,-14.7564,-56.1536,59.0071
2124,L,-16.5970,-59.7474,60.4945
2125,L,-23.3520,41.6457,32.4858
2126,L,-19.7475,42.0631,33.0651
2127,L,-16.7282,41.5933,36.4123
2128,L,-19.6898,29.3547,36.3895
2129,L,-17.6151,34.9403,39.4830
2130,L,-15.9568,40.7787,41.6596
2131,L,-14.9540,39.7435,45.4408
2132,L,-11.9808,37.4705,47.8834
2133,L,-9.5560,34.5268,51.5989
2134,L,-25.0923,10.1026,49.0150
2135,L,-23.3046,14.2877,50.8870
2136,L,-22.5004,18.6953,53.9158
2137,L,-19.8323,10.1197,58.5129
2138,L,-20.8671,16.5951,57.5979
2139,L,-20.1083,23.6178,56.2891
2140,L,-14.7936,24.7094,52.5782
2141,L,-9.5322,27.9536,54.1930
2142,L,-6.3796,29.1851,54.4286
2143,L,-6.1603,23.6884,55.4367
2144,L,-7.8490,17.8998,55.9165
2145,L,-8.1562,12.1272,55.7187
2146,L,-6.6366,7.3715,65.4727
2147,L,-7.6529,7.6649,61.1531
2148,L,-8.9483,6.8123,55.2314
2149,L,-8.4007,1.9359,53.4889
2150,L,-7.9543,-3.6960,51.5541
2151,L,-9.8989,-3.2080,48.6949
2152,L,-3.7646,17.9363,-4.7216
2153,L,-2.0295,11.6758,-1.7205
2154,L,-1.3376,19.6869,-2.3902
2155,L,-0.5920,21.8478,0.8607
2156,L,-0.6387,23.9072,4.6166
2157,L,-5.5024,33.9037,0.2054
2158,L,-0.6289,31.1895,4.2238
2159,L,-0.4280,25.2199,9.0872
2160,L,-1.1035,25.4619,13.4986
2161,L,-4.2056,24.3209,16.9656
2162,L,-6.6495,22.4765,20.1315
2163,L,-9.0281,49.2685,8.2859
2164,L,-13.5935,44.9369,10.4321
2165,L,-13.9902,39.1406,13.1402
2166,L,-10.9265,41.1897,23.0476
2167,L,-14.1135,37.4312,19.5382
2168,L,-10.0256,34.9577,17.0028
2169,L,-7.0586,31.6262,21.0128
2170,L,-5.8250,26.4999,22.9803
2171,L,-5.1512,20.6807,25.1636
2172,L,-6.3616,18.4508,29.8093
2173,L,-8.5642,14.1734,32.7781
2174,L,-9.9925,10.5625,35.6907
2175,L,-12.4529,16.0816,38.1625
2176,L,-11.4737,11.6323,38.7016
2177,L,-11.0645,7.0236,38.9153
2178,L,-11.3918,3.2876,42.1450
2179,L,-10.9087,0.1584,45.9251
2180,L,-31.2629,27.2951,-8.8109
2181,L,-28.7578,24.4350,-11.2972
2182,L,-36.7414,24.8947,-13.0270
2183,L,-37.5268,23.4356,-16.9939
2184,L,-33.9710,26.6020,-18.6406
2185,L,-36.1711,31.5836,-10.9062
2186,L,-31.1309,31.2340,-13.2604
2187,L,-27.3259,28.4018,-15.0908
2188,L,-21.0994,28.1954,-13.0811
2189,L,-19.3694,29.9924,-19.0370
2190,L,-14.4356,31.3066,-24.2355
2191,L,-32.0684,54.7738,-8.6489
2192,L,-27.8411,55.0629,-11.6011
2193,L,-22.1676,49.9841,-11.6081
2194,L,-13.7550,58.9205,-16.0073
2195,L,-15.5492,52.7735,-15.5412
2196,L,-17.4343,45.3317,-14.7125
2197,L,-14.4639,41.5767,-21.7050
2198,L,-12.3652,37.4709,-24.0781
2199,L,-12.8867,33.8864,-19.7636
2200,L,-8.2179,33.0057,-21.8210
2201,L,-4.4716,30.6845,-27.5552
2202,L,-3.1180,28.0322,-25.9122
2203,L,-5.7784,38.5559,-19.2579
2204,L,-5.2274,32.8029,-20.3763
2205,L,-6.0187,26.1714,-19.0721
2206,L,-6.5852,23.2556,-13.4405
2207,L,-6.1053,20.4339,-8.4400
2208,L,-55.6888,4.4321,7.5810
2209,L,-53.0256,6.0289,4.3713
2210,L,-51.2073,8.7328,1.8275
2211,L,-48.8610,12.4298,15.0123
2212,L,-50.9010,12.2033,8.2531
2213,L,-49.9601,11.7392,1.4904
2214,L,-47.5829,13.4228,2.9181
2215,L,-44.4962,14.7866,5.4478
2216,L,-42.4503,17.2550,8.3051
2217,L,-40.1761,26.2388,19.2954
2218,L,-44.8109,24.9785,17.1123
2219,L,-50.2332,25.1121,14.4693
2220,L,-43.1046,32.4501,9.0859
2221,L,-49.2494,28.4334,9.0596
2222,L,-53.2366,24.5313,10.5041
2223,L,-50.7302,22.6698,7.3730
2224,L,-45.0758,22.2647,7.9573
2225,L,-40.0062,21.1217,9.7904
2226,L,-37.1218,24.1827,9.2784
2227,L,-34.2891,26.9475,7.9983
2228,L,-32.0972,29.7721,5.8920
2229,L,-42.3707,32.4464,-3.0174
2230,L,-36.6051,32.8732,-0.4705
2231,L,-30.4782,31.8454,2.5066
2232,L,-29.9456,30.7317,-1.2536
2233,L,-30.2280,28.9355,-4.9433
2234,L,-26.8681,24.8046,-3.2865
2235,L,-60.5538,-21.2207,-2.6926
2236,L,-55.6790,-18.4238,-4.2833
2237,L,-61.9347,-17.3231,-2.0943
2238,L,-62.3991,-13.3250,-1.0394
2239,L,-61.0330,-10.9885,0.6468
2240,L,-54.1924,-17.7027,3.0156
2241,L,-56.4916,-14.2738,3.2606
2242,L,-57.8110,-8.6070,0.5603
2243,L,-53.9332,-8.0501,-1.6249
2244,L,-50.4909,-10.5718,-4.1995
2245,L,-47.6897,-14.3799,-7.9487
2246,L,-30.8925,-27.7577,12.2386
2247,L,-32.2961,-27.2804,7.2514
2248,L,-34.4972,-26.6718,2.8216
2249,L,-36.1886,-15.6123,11.2446
2250,L,-33.5508,-20.2227,4.8190
2251,L,-37.3078,-25.5669,-1.4319
2252,L,-39.5885,-23.4503,-5.1618
2253,L,-41.3433,-20.2088,-8.4351
2254,L,-42.8465,-16.3576,-11.5891
2255,L,-37.9680,-14.6234,-10.9428
2256,L,-35.7142,-10.1044,-7.3845
2257,L,-36.4720,-3.7650,-3.3482
2258,L,-34.3680,2.4621,4.2672
2259,L,-35.3892,2.8596,1.5552
2260,L,-36.8497,3.7512,-1.1515
2261,L,-33.3017,13.4946,-0.9057
2262,L,-31.0944,20.2593,-0.9707
2263,L,-53.7965,-46.2617,43.4649
2264,L,-55.2287,-47.2146,39.0591
2265,L,-56.7305,-48.2207,34.9489
2266,L,-57.6497,-40.8821,37.4103
2267,L,-58.3742,-45.1325,34.8712
2268,L,-58.9176,-49.2796,31.1214
2269,L,-60.0485,-49.7644,27.5889
2270,L,-60.1967,-49.9220,22.9517
2271,L,-60.1619,-48.1024,19.2087
2272,L,-62.0618,-30.2240,21.4446
2273,L,-56.8203,-33.0788,24.2624
2274,L,-50.6660,-37.0721,27.4819
2275,L,-45.2726,-34.2646,23.1575
2276,L,-46.1626,-38.3593,25.8943
2277,L,-48.3362,-42.8114,26.9326
2278,L,-50.9019,-45.7965,22.6904
2279,L,-56.1509,-45.0509,18.2982
2280,L,-61.5020,-43.8313,15.9967
2281,L,-63.0276,-39.9884,13.0350
2282,L,-64.3084,-36.3629,9.9708
2283,L,-65.1566,-33.1098,7.5858
2284,L,-55.4686,-32.5245,7.4508
2285,L,-63.0687,-29.6539,7.5614
2286,L,-65.6492,-30.0438,4.8894
2287,L,-65.3478,-27.1690,1.7903
2288,L,-63.3932,-23.8387,-1.3581
2289,L,-56.0105,-25.8901,-2.9560
2290,L,-38.0429,-84.0591,2.2103
2291,L,-41.3426,-85.4364,-0.3141
2292,L,-43.4990,-83.5187,4.0319
2293,L,-45.1562,-78.7060,3.7788
2294,L,-41.7082,-73.4262,4.8065
2295,L,-45.9815,-72.1814,9.4140
2296,L,-43.4794,-70.2241,5.8944
2297,L,-39.9476,-66.3025,3.2269
2298,L,-45.0959,-61.2703,1.7512
2299,L,-51.5789,-59.6728,1.6269
2300,L,-57.4915,-59.6535,2.5989
2301,L,-38.8463,-62.2656,21.6282
2302,L,-39.8697,-61.5858,16.1016
2303,L,-43.8586,-60.9686,12.1236
2304,L,-40.7330,-53.5968,13.0976
2305,L,-44.9394,-57.8217,11.6731
2306,L,-49.6803,-62.3621,11.3169
2307,L,-54.4437,-61.7619,9.3956
2308,L,-58.0161,-59.5971,6.2115
2309,L,-61.2302,-55.0493,1.8705
2310,L,-61.1862,-49.2198,0.3010
2311,L,-58.4841,-45.7194,-1.9726
2312,L,-53.5019,-41.9072,-3.7834
2313,L,-49.1915,-42.3954,1.5122
2314,L,-49.1610,-40.7366,-1.2635
2315,L,-48.5825,-38.6867,-4.4687
2316,L,-46.9433,-34.0493,-3.3990
2317,L,-50.3763,-29.6179,-2.9691
2318,L,-19.6950,-65.5923,53.7638
2319,L,-19.2473,-64.2080,49.0545
2320,L,-18.5038,-63.6911,43.0818
2321,L,-25.6338,-62.9778,47.5284
2322,L,-21.3939,-61.0526,42.5056
2323,L,-20.2775,-64.4081,36.7240
2324,L,-22.4471,-65.7089,29.8569
2325,L,-25.3650,-67.9215,24.2399
2326,L,-27.6017,-71.8418,19.4031
2327,L,-30.9513,-59.0553,37.2241
2328,L,-31.3503,-63.2496,39.9577
2329,L,-29.5424,-67.7643,41.4749
2330,L,-32.4032,-73.6355,43.5652
2331,L,-31.2793,-71.9521,40.2561
2332,L,-30.9549,-68.7263,35.1494
2333,L,-30.6873,-70.8344,27.3324
2334,L,-31.3264,-73.2388,19.3614
2335,L,-27.7855,-77.4816,14.1236
2336,L,-29.4765,-81.6372,12.4153
2337,L,-31.4699,-86.2988,12.3081
2338,L,-32.8601,-89.8834,11.4712
2339,L,-39.9635,-84.1532,17.5626
2340,L,-36.6792,-86.2607,11.1812
2341,L,-31.5699,-86.7263,8.2779
2342,L,-30.7847,-82.6279,5.5441
2343,L,-33.6073,-81.9808,3.2959
2344,L,-31.5326,-85.5094,-1.3043
2345,L,-19.4786,-61.7029,10.4752
2346,L,-22.6574,-66.9515,8.1987
2347,L,-20.5246,-66.7972,7.6275
2348,L,-17.1324,-69.7213,7.5697
2349,L,-12.8612,-72.2034,10.6392
2350,L,-14.5910,-68.0773,14.6722
2351,L,-8.9927,-68.3913,8.9144
2352,L,-8.6053,-76.4419,13.4013
2353,L,-7.4800,-81.6637,11.6068
2354,L,-6.0926,-87.5894,10.0064
2355,L,-6.7075,-91.5909,5.5657
2356,L,-16.6645,-78.4588,28.0674
2357,L,-9.3377,-78.7913,27.2675
2358,L,-4.6744,-79.6061,25.9359
2359,L,-6.7118,-87.2759,31.6017
2360,L,-5.4563,-85.2860,27.2533
2361,L,-3.3657,-83.3535,21.9750
2362,L,-4.2027,-87.3789,16.2334
2363,L,-3.5586,-93.3897,9.7928
2364,L,-8.2251,-96.3713,6.5422
2365,L,-8.6296,-99.7269,3.5358
2366,L,-10.2573,-101.9786,-1.2791
2367,L,-15.1897,-102.1706,-2.7207
2368,L,-15.5466,-99.3258,8.2321
2369,L,-17.7854,-100.8390,2.1499
2370,L,-21.4881,-99.4436,-1.9196
2371,L,-25.3711,-96.6077,-1.8730
2372,L,-28.2814,-91.1289,-1.6619
2373,L,-14.0492,-15.9974,43.8125
2374,L,-14.9986,-17.9749,39.1896
2375,L,-12.6386,-21.1468,36.9417
2376,L,-17.7916,-29.3760,38.6924
2377,L,-14.2063,-26.9566,36.2897
2378,L,-9.2653,-25.3520,38.8394
2379,L,-6.7043,-28.5344,40.9545
2380,L,-5.4901,-30.6914,38.7747
2381,L,-5.3406,-33.2935,35.7534
2382,L,-9.2475,-45.8487,48.9668
2383,L,-7.5544,-44.2246,45.6427
2384,L,-7.1504,-43.7092,42.9812
2385,L,-11.0699,-52.0554,40.0143
2386,L,-13.4048,-47.0593,40.3537
2387,L,-8.4593,-41.7922,40.7941
2388,L,-9.0001,-39.3637,38.3522
2389,L,-8.3967,-36.8950,34.7072
2390,L,-5.1136,-38.6817,32.1737
2391,L,-4.8930,-44.2586,30.8086
2392,L,-4.4245,-49.4450,28.0223
2393,L,-6.6685,-51.7370,22.1773
2394,L,-6.4011,-59.5838,23.5462
2395,L,-5.9302,-58.6416,20.0632
2396,L,-5.3824,-57.4821,16.7732
2397,L,-6.5641,-60.1581,14.0424
2398,L,-13.5198,-57.6543,13.6975
2399,L,-14.3385,-59.2613,9.8744
2400,L,-1.6804,2.1952,-2.5254
2401,L,-0.8580,4.9699,-0.4140
2402,L,-1.8552,-0.9087,2.0658
2403,L,-2.6903,-4.7280,4.0503
2404,L,-1.2518,3.2495,8.6240
2405,L,-3.0879,-2.7588,7.3334
2406,L,-1.8613,-9.9087,6.0216
2407,L,-2.0188,-16.1304,7.5293
2408,L,-3.8087,-21.3315,9.1199
2409,L,-5.5848,-26.1034,10.6825
2410,L,-0.7429,5.5662,26.6397
2411,L,-0.3711,-0.9130,24.4349
2412,L,-0.4912,-7.4246,21.2646
2413,L,-1.1892,-15.2970,27.4940
2414,L,-0.3971,-14.7645,22.8287
2415,L,-0.6892,-14.3863,18.0495
2416,L,-1.6922,-21.2883,15.2238
2417,L,-3.6012,-27.6171,13.6298
2418,L,-4.7458,-32.4052,11.4545
2419,L,-1.3185,-34.9068,7.3284
2420,L,-0.9616,-40.0468,6.5674
2421,L,-5.1504,-43.9842,8.9222
2422,L,-2.9955,-43.4185,17.2278
2423,L,-5.7430,-45.7922,12.8124
2424,L,-8.6400,-48.5648,8.7901
2425,L,-8.4418,-53.1354,7.2045
2426,L,-11.0404,-56.7580,9.4176
2427,L,-26.0042,20.5516,-11.1894
2428,L,-26.7855,15.8097,-11.5001
2429,L,-30.1480,11.2549,-13.6815
2430,L,-26.0685,14.7927,-20.9347
2431,L,-27.5852,11.3083,-15.5720
2432,L,-32.0668,4.9308,-14.9446
2433,L,-33.6811,0.8582,-19.1368
2434,L,-32.1254,0.7043,-24.6656
2435,L,-28.6827,1.2836,-27.7302
2436,L,-16.4979,16.1385,-16.5681
2437,L,-18.3693,8.2042,-16.1141
2438,L,-22.2466,2.4824,-12.5123
2439,L,-22.9023,-5.4504,-11.2521
2440,L,-24.8475,-4.0346,-13.5214
2441,L,-27.2053,-2.5567,-14.3366
2442,L,-32.2407,-4.8970,-20.0533
2443,L,-30.2329,-2.9428,-26.6481
2444,L,-25.4797,0.5042,-30.6253
2445,L,-24.0385,-0.8550,-33.6746
2446,L,-24.4319,-3.7701,-34.9459
2447,L,-25.2915,-7.2195,-34.5720
2448,L,-23.4875,-13.4557,-28.6992
2449,L,-20.6371,-11.0433,-30.3825
2450,L,-26.9190,-11.0718,-33.1311
2451,L,-28.7062,-14.7773,-31.0638
2452,L,-31.2068,-18.9761,-28.9244
2453,L,-35.1154,-19.0138,-29.0966
2454,L,-32.7922,-22.5103,-25.6148
2455,L,-51.0598,-17.5741,-9.0531
2456,L,-49.2914,-16.9642,-14.1717
2457,L,-52.4091,-16.4145,-17.6480
2458,L,-50.8788,-8.3392,-14.7147
2459,L,-50.1014,-11.5620,-19.9628
2460,L,-56.1885,-14.3721,-19.5801
2461,L,-59.5944,-10.6655,-21.2351
2462,L,-59.9145,-9.9256,-24.4063
2463,L,-54.8174,-11.8299,-26.1567
2464,L,-51.7560,8.3944,-13.2369
2465,L,-52.7718,10.2226,-17.3331
2466,L,-47.7206,4.9653,-25.1021
2467,L,-43.8222,13.2606,-30.3972
2468,L,-45.8645,6.9346,-31.8141
2469,L,-52.3331,3.6145,-30.8254
2470,L,-52.8932,-1.8335,-31.9956
2471,L,-49.5092,-7.4172,-29.1766
2472,L,-49.5610,-14.1234,-30.0416
2473,L,-50.9235,-13.5929,-36.2026
2474,L,-48.5010,-13.7967,-38.9449
2475,L,-43.8102,-14.1471,-36.5935
2476,L,-37.5286,-5.6529,-43.4445
2477,L,-39.9989,-8.7683,-38.5325
2478,L,-42.0038,-11.5018,-31.9863
2479,L,-39.0237,-11.0129,-28.2986
2480,L,-36.6838,-15.0532,-28.0598
2481,L,-38.6558,-19.9789,-23.4524
2482,L,-41.9903,-83.1571,-3.3703
2483,L,-42.2245,-81.0510,-6.7105
2484,L,-44.7242,-77.4119,-8.8899
2485,L,-45.5998,-68.4433,-4.8051
2486,L,-43.9718,-71.4512,-6.3847
2487,L,-42.5972,-76.2326,-9.9034
2488,L,-39.2577,-73.6352,-10.5921
2489,L,-40.8587,-68.2017,-13.3203
2490,L,-43.3001,-62.7105,-15.8776
2491,L,-54.3101,-51.4542,-8.3744
2492,L,-56.5459,-55.6226,-11.2597
2493,L,-53.9498,-58.1559,-13.4587
2494,L,-58.0310,-46.9982,-20.6117
2495,L,-54.3444,-54.0374,-18.4232
2496,L,-48.8209,-54.8388,-11.1760
2497,L,-43.2684,-53.0899,-9.7742
2498,L,-41.2436,-54.7946,-14.3446
2499,L,-43.5931,-56.0503,-19.4357
2500,L,-41.5318,-50.9152,-19.5053
2501,L,-39.6376,-45.2603,-19.7910
2502,L,-40.6969,-40.9841,-23.4547
2503,L,-46.5047,-35.8381,-24.3623
2504,L,-43.1798,-36.0315,-22.5960
2505,L,-39.2159,-37.0780,-22.3231
2506,L,-39.4933,-32.1397,-23.5048
2507,L,-39.9852,-26.5249,-22.6744
2508,L,-37.6907,-27.7859,-25.7291
2509,L,-24.4202,-70.1122,5.5844
2510,L,-22.0280,-71.0444,2.1081
2511,L,-14.8269,-68.9075,1.4799
2512,L,-9.9540,-76.7657,4.7048
2513,L,-7.8491,-70.9643,4.4534
2514,L,-7.1099,-65.6222,3.9180
2515,L,-6.7346,-64.8099,0.9385
2516,L,-11.3741,-65.4747,-1.7925
2517,L,-15.1689,-64.5179,-4.9487
2518,L,-5.2829,-94.0716,-9.1283
2519,L,-4.4942,-89.4860,-10.1115
2520,L,-9.0809,-85.5715,-7.2109
2521,L,-16.2828,-82.5351,-10.5361
2522,L,-13.5510,-79.4442,-11.2120
2523,L,-11.4289,-77.5973,-6.2490
2524,L,-13.0801,-71.3216,-8.7925
2525,L,-17.7012,-66.5261,-7.1332
2526,L,-21.5981,-60.9326,-5.1427
2527,L,-26.7316,-55.9873,-5.0734
2528,L,-31.8448,-51.4061,-6.3972
2529,L,-34.5953,-47.6854,-10.0495
2530,L,-29.7654,-56.4991,-12.6567
2531,L,-30.9197,-49.1215,-13.8664
2532,L,-35.2549,-43.1555,-15.0758
2533,L,-34.7330,-38.0363,-19.7513
2534,L,-34.9608,-32.0138,-23.4818
2535,L,-36.9311,-26.9964,-21.2457
2536,L,-3.0828,-5.5496,-5.9863
2537,L,-0.7863,-14.5435,-10.0904
2538,L,-1.8537,-20.6363,-16.6432
2539,L,-2.0859,-25.2190,-8.5594
2540,L,-3.3449,-23.4722,-14.0577
2541,L,-7.4850,-22.1419,-17.9683
2542,L,-13.8073,-24.5236,-15.8074
2543,L,-22.2669,-24.7500,-11.1112
2544,L,-31.1706,-27.0038,-9.6473
2545,L,-15.9176,-35.8092,1.8596
2546,L,-21.0706,-35.9025,0.2488
2547,L,-25.7979,-35.3856,-0.9986
2548,L,-25.7829,-41.3615,-2.1494
2549,L,-30.2268,-38.4179,-0.1295
2550,L,-29.4309,-33.9502,-2.9806
2551,L,-32.9456,-32.7003,-4.9639
2552,L,-36.3364,-32.1068,-7.7065
2553,L,-38.7439,-30.2474,-11.0607
2554,L,-37.4555,-31.0066,-15.1365
2555,L,-30.7847,-28.7371,-17.9996
2556,L,-23.7133,-25.1660,-19.2105
2557,L,-19.6809,-30.2734,-17.2101
2558,L,-20.7786,-28.4828,-20.1585
2559,L,-21.9367,-26.2049,-23.1892
2560,L,-27.2452,-27.2959,-23.9921
2561,L,-32.2169,-25.9651,-21.4847
2562,L,-39.3004,-16.9045,61.1750
2563,L,-39.9852,-14.0711,62.2752
2564,L,-38.4598,-14.9374,63.6736
2565,L,-37.0595,-21.0606,59.0439
2566,L,-38.0339,-19.2568,58.4284
2567,L,-35.1980,-21.2868,61.9520
2568,L,-34.9264,-22.3720,58.7866
2569,L,-36.4457,-18.4911,65.2505
2570,L,-34.4053,-20.8966,64.6684
2571,L,-36.8054,-15.4068,64.8090
2572,L,-22.4532,46.1261,23.5958
2573,L,-22.6547,47.6478,26.3777
2574,L,-22.6173,44.3166,26.7110
2575,L,-22.9882,43.2873,20.8325
2576,L,-22.6251,46.6128,20.8384
2577,L,-22.9953,39.8048,21.8340
2578,L,-24.0252,40.6214,19.3182
2579,L,-56.8051,-1.9245,8.8499
2580,L,-56.2949,-0.5785,7.5179
2581,L,-57.2044,1.1761,8.3999
2582,L,-57.5270,-2.7749,10.3928
2583,L,-57.8995,-4.2010,8.9777
2584,L,-50.5272,-50.8696,44.9015
2585,L,-51.0705,-50.9136,43.4096
2586,L,-51.4622,-49.4696,44.9926
2587,L,-48.8676,-49.3036,43.9707
2588,L,-49.5010,-51.3073,44.5415
2589,L,-14.3996,-67.7744,58.2689
2590,L,-14.5524,-68.0236,55.2044
2591,L,-16.2684,-67.1685,56.7640
2592,L,-14.9313,-65.8363,60.7298
2593,L,-13.0478,-67.2795,59.8907
2594,L,-11.9211,-6.8835,46.5282
2595,L,-12.7465,-8.1794,45.0904
2596,L,-12.6207,-10.0333,46.4747
2597,L,-4.1461,11.3239,-4.9083
2598,L,-4.2229,7.7710,-5.2566
2599,L,-3.2659,5.8926,-4.1107
2600,L,-28.1729,21.0860,-4.3941
2601,L,-29.7105,18.9986,-4.9573
2602,L,-26.7702,20.8788,-6.2150
2603,L,-50.7675,-24.3228,-5.0410
2604,L,-48.8646,-23.9111,-6.8612
2605,L,-51.0471,-21.9350,-6.0762
2606,L,-33.4878,-86.6954,-4.2222
2607,L,-34.3389,-87.9692,-5.5361
2608,L,-37.3369,-86.1359,-3.5383
2609,L,-19.9778,-60.1611,7.9862
2610,L,-22.3568,-60.9110,7.4338
2611,L,-23.0951,-62.9397,7.7748
2612,L,-54.2141,-5.0472,37.3845
2613,L,-55.6669,-2.6862,37.7879
2614,L,-55.1851,-3.7278,39.1840
2615,L,-31.9583,8.8331,55.5819
2616,L,-34.4119,11.6183,54.5457
2617,L,-33.0441,11.4017,52.8937
2618,L,-33.2783,13.4456,49.6355
2619,L,-31.9171,10.9605,50.9458
2620,L,-46.5705,-28.5338,50.8577
2621,L,-46.8938,-27.7645,49.0019
2622,L,-48.3408,-26.1581,51.7579
2623,L,-49.3271,-8.0757,37.7624
2624,L,-47.4321,-8.6876,35.1717
2625,L,-50.9139,-6.8668,36.1798
2626,L,-52.1073,-5.7288,34.8867
2627,L,-19.8773,-36.0783,66.5110
2628,L,-20.2257,-37.9506,62.5725
2629,L,-21.0722,-36.0555,64.8318
2630,L,-47.2027,-28.2539,54.9075
2631,L,-45.6370,-30.7724,53.3994
2632,L,-46.0403,-29.7195,51.9470
2633,L,-44.1437,-30.1441,49.0044
2634,L,-10.7868,-10.1106,69.2927
2635,L,-8.9200,-11.6555,69.2796
2636,L,-10.1907,-12.3894,69.3667
2637,L,-20.3123,-32.9711,72.4199
2638,L,-18.1968,-33.1846,73.2044
2639,L,-19.2380,-34.8191,70.0746
2640,L,-18.5310,-36.9075,67.6128
2641,L,-30.6472,11.0151,47.4441
2642,L,-30.0608,9.9957,50.8573
2643,L,-13.4270,-9.5264,67.3774
2644,L,-14.9595,-7.0290,68.4404
2645,L,-12.6579,-8.6692,69.1877
2646,L,-11.5669,-7.7626,68.9499
2647,L,-12.6917,50.8629,0.3364
2648,L,-13.6690,48.1800,1.8875
2649,L,-13.0250,51.0216,3.0939
2650,L,-6.5418,37.1846,47.7548
2651,L,-7.6088,36.1585,45.2405
2652,L,-6.9030,33.2526,47.5558
2653,L,-7.1754,29.9530,47.3105
2654,L,-6.9876,31.5222,49.6254
2655,L,-39.8298,49.1273,-7.2903
2656,L,-40.0966,49.7179,-9.2265
2657,L,-39.3779,51.9987,-7.1080
2658,L,-9.2712,56.0764,-0.0632
2659,L,-8.0333,55.1235,-2.5515
2660,L,-10.5295,52.5764,-1.3969
2661,L,-11.8159,49.9312,-2.7198
2662,L,-36.1324,22.3126,23.6400
2663,L,-36.6203,21.4086,21.7441
2664,L,-36.9743,23.9014,22.4262
2665,L,-37.4762,49.3297,-2.2138
2666,L,-37.6685,45.9481,-3.0805
2667,L,-38.4367,47.4937,-5.6152
2668,L,-40.3202,45.5400,-7.8204
2669,L,-34.5263,-32.5371,14.8183
2670,L,-35.7964,-31.0996,13.3208
2671,L,-32.9845,-31.3993,15.2355
2672,L,-37.8673,12.9256,10.4201
2673,L,-36.5776,11.2829,12.2428
2674,L,-36.2394,14.6189,11.1420
2675,L,-35.0917,15.9144,11.8963
2676,L,-36.7480,17.3999,10.5621
2677,L,-58.8189,-27.5872,28.0737
2678,L,-61.2246,-28.7418,27.9166
2679,L,-60.5089,-27.8991,26.4397
2680,L,-33.4282,-32.3318,19.6403
2681,L,-34.4866,-34.3426,18.0183
2682,L,-34.1612,-33.6839,15.9923
2683,L,-35.7707,-33.5697,12.5076
2684,L,-43.5780,-68.6336,25.8509
2685,L,-43.8715,-67.5591,23.5333
2686,L,-42.0172,-66.7571,25.3027
2687,L,-60.2131,-50.2700,15.6859
2688,L,-59.0554,-50.0272,14.3063
2689,L,-60.9126,-48.0389,13.9279
2690,L,-61.2088,-46.0191,12.6405
2691,L,-62.4471,-46.3548,14.3228
2692,L,-27.1302,-51.8651,41.9960
2693,L,-26.8587,-53.7601,41.5580
2694,L,-27.4205,-53.2066,39.3442
2695,L,-40.8128,-68.8702,30.1319
2696,L,-42.0256,-70.7203,30.8629
2697,L,-43.3462,-69.8720,28.0745
2698,L,-45.8289,-70.5182,26.5971
2699,L,-12.7401,-66.4437,33.5418
2700,L,-16.5666,-67.4390,31.0080
2701,L,-15.6122,-67.5885,32.9133
2702,L,-23.1910,-80.2693,19.1958
2703,L,-21.3983,-83.6693,19.1194
2704,L,-22.1482,-81.9253,16.7226
2705,L,-21.5512,-83.7261,14.7419
2706,L,-23.4763,-80.4075,14.7960
2707,L,-17.1877,-43.7983,54.4861
2708,L,-17.5019,-44.1392,52.0768
2709,L,-16.0948,-46.0287,52.9276
2710,L,-8.0398,-69.4177,34.9835
2711,L,-5.3491,-69.8804,33.5404
2712,L,-9.2215,-67.7548,33.4733
2713,L,-10.2250,-66.4856,32.3077
2714,L,-4.3491,17.6479,22.0702
2715,L,-1.6403,15.6397,22.0860
2716,L,-3.5109,14.8644,23.4811
2717,L,-4.4785,-30.8857,30.1707
2718,L,-6.9569,-31.0303,30.1659
2719,L,-5.3826,-33.5778,29.4693
2720,L,-5.8174,-36.0333,28.8610
2721,L,-4.0990,-35.6484,29.7594
2722,L,-14.3682,26.1868,-23.2631
2723,L,-15.0518,23.2118,-23.2530
2724,L,-14.4749,24.0562,-22.0710
2725,L,-31.9838,-22.8519,-11.2817
2726,L,-34.0793,-21.4973,-12.2654
2727,L,-36.6381,-23.7101,-12.2417
2728,L,-38.9317,-24.4851,-14.0863
2729,L,-38.1486,-25.9700,-12.2124
2730,L,-49.9751,-6.9283,-8.9189
2731,L,-52.0133,-1.2717,-8.4643
2732,L,-50.4140,-3.5446,-10.0402
2733,L,-27.5005,8.5972,-35.8291
2734,L,-26.7503,11.0080,-37.5655
2735,L,-25.5960,8.1979,-38.1272
2736,L,-25.3817,6.9316,-39.6877
2737,L,-25.5402,5.4828,-37.5247
2738,L,-57.5034,-58.2306,-1.5864
2739,L,-55.7888,-58.4080,-3.2455
2740,L,-57.2896,-55.7972,-2.9558
2741,L,-54.6459,-20.1309,-24.8720
2742,L,-53.2278,-23.0008,-25.1756
2743,L,-54.1140,-21.0482,-27.3502
2744,L,-54.7387,-21.4502,-29.6867
2745,L,-53.5694,-18.8300,-29.0555
2746,L,-12.2767,-91.3869,3.4523
2747,L,-12.5686,-90.3827,0.6323
2748,L,-12.8535,-91.2879,-0.2207
2749,L,-39.5597,-69.3412,-17.8314
2750,L,-36.0149,-69.8787,-16.3126
2751,L,-39.6040,-65.3926,-17.5569
2752,L,-39.1115,-62.3455,-17.7619
2753,L,-42.4160,-61.3362,-19.8445
2754,L,-7.0916,-28.6786,7.5938
2755,L,-7.2262,-29.4850,4.8115
2756,L,-8.1847,-30.8143,5.8674
2757,L,-17.3857,-55.6102,-7.3504
2758,L,-19.0749,-51.8986,-8.3345
2759,L,-20.4080,-54.0476,-7.2147
2760,L,-22.4996,-51.8893,-6.1855
2761,L,-21.3598,-56.1525,-5.9241
2762,L,-42.9975,-12.0659,47.0380
2763,L,-46.0609,-10.9939,48.5876
2764,L,-44.1546,-10.9484,49.7465
2765,L,-31.7878,-9.1869,46.1123
2766,L,-33.2038,-7.6576,44.5879
2767,L,-30.7137,-7.1053,44.7158
2768,L,-29.9437,-4.6524,45.3218
2769,L,-28.3641,-6.3433,44.8455
2770,L,-41.3879,-26.1641,52.0311
2771,L,-42.1032,-24.6316,50.7809
2772,L,-40.0474,-25.8132,48.5392
2773,L,-38.0595,-12.8282,48.2765
2774,L,-36.0209,-13.8186,45.6674
2775,L,-39.5193,-12.8054,46.0917
2776,L,-41.1224,-13.0457,44.4607
2777,L,-21.8192,-31.2514,54.5818
2778,L,-23.9631,-31.0672,57.0453
2779,L,-23.7919,-30.5415,53.7767
2780,L,-36.9398,-28.3716,49.8457
2781,L,-37.0861,-29.0166,52.5347
2782,L,-39.4032,-27.7530,52.3757
2783,L,-41.7232,-26.5904,55.1182
2784,L,-21.4728,-17.4478,64.5801
2785,L,-20.7316,-18.1428,66.9220
2786,L,-22.8405,-17.7411,67.5685
2787,L,-20.9455,-26.9871,53.4184
2788,L,-19.4454,-26.8919,55.1653
2789,L,-20.0235,-29.4099,53.6628
2790,L,-19.9648,-31.4905,55.1506
2791,L,-26.2213,-5.8664,44.6844
2792,L,-26.7977,-8.5808,44.8507
2793,L,-24.4877,-15.8110,62.8559
2794,L,-23.2440,-15.2113,60.0260
2795,L,-22.5323,-16.5390,62.1926
2796,L,-20.3548,-16.7753,61.6624
2797,L,-13.1192,63.8448,12.3789
2798,L,-11.0666,64.3446,14.6115
2799,L,-12.5933,61.6880,14.9625
2800,L,-14.6956,48.4802,35.3651
2801,L,-12.5258,49.9518,33.8117
2802,L,-12.9934,47.7603,37.2179
2803,L,-11.3504,47.1770,38.9637
2804,L,-13.4785,45.7466,40.1430
2805,L,-31.1751,48.6537,7.8596
2806,L,-29.6159,48.1503,4.6342
2807,L,-28.4067,46.7408,6.4863
2808,L,-18.1397,59.6928,10.8103
2809,L,-19.3750,62.2888,9.8556
2810,L,-15.8704,62.7584,10.2590
2811,L,-13.6373,64.7435,10.0132
2812,L,-41.0527,35.1850,28.6194
2813,L,-40.9996,35.6715,26.4329
2814,L,-40.3864,38.2176,27.5370
2815,L,-32.5988,48.8663,13.6394
2816,L,-35.0005,50.7195,14.9466
2817,L,-32.8958,50.1641,11.8026
2818,L,-33.4938,50.8865,9.4590
2819,L,-45.2281,-16.0863,18.7329
2820,L,-44.0043,-15.3243,19.6171
2821,L,-46.1721,-12.9334,18.3978
2822,L,-49.4349,4.9109,2.8107
2823,L,-48.0895,3.3004,5.8340
2824,L,-47.7187,5.9086,3.4472
2825,L,-46.0711,6.5713,4.2797
2826,L,-47.2643,8.2612,1.4572
2827,L,-62.0783,-15.1939,20.2212
2828,L,-60.0642,-16.5913,20.4596
2829,L,-61.3854,-16.3222,18.4146
2830,L,-49.6105,-14.0200,16.8546
2831,L,-48.6954,-16.3000,15.5906
2832,L,-46.8818,-16.3473,17.1661
2833,L,-44.1130,-18.3898,17.5648
2834,L,-49.2037,-63.4218,35.4735
2835,L,-48.4772,-62.7337,33.5071
2836,L,-50.6159,-61.8812,34.3890
2837,L,-53.3273,-50.8651,30.6176
2838,L,-51.8525,-51.3472,28.5943
2839,L,-54.3050,-51.1294,28.7174
2840,L,-55.2067,-51.2111,26.8963
2841,L,-56.6837,-51.3904,29.0666
2842,L,-38.8012,-50.3162,33.9956
2843,L,-39.5043,-52.6212,33.9741
2844,L,-41.0937,-52.2366,35.0032
2845,L,-49.9492,-60.9113,38.6287
2846,L,-48.9219,-62.2583,40.1728
2847,L,-49.4156,-63.0163,37.8084
2848,L,-47.8776,-64.1212,37.2817
2849,L,-7.1146,-73.5488,44.7375
2850,L,-8.8898,-74.9286,43.3737
2851,L,-8.6802,-75.3097,45.0920
2852,L,-17.5816,-70.1506,40.0933
2853,L,-18.5801,-72.4986,40.0747
2854,L,-19.4878,-70.7145,38.0852
2855,L,-20.9236,-72.0897,35.2474
2856,L,-20.2422,-69.1886,35.5844
2857,L,-7.8076,-54.2283,60.5914
2858,L,-7.6397,-54.0308,58.6426
2859,L,-8.0166,-55.4588,58.3948
2860,L,-6.4775,-70.9696,49.3953
2861,L,-5.9508,-68.2263,49.8346
2862,L,-6.2238,-71.2611,47.2333
2863,L,-5.9278,-71.5107,45.2264
2864,L,-6.9740,7.6726,36.1011
2865,L,-4.9952,6.6266,35.9090
2866,L,-5.8311,4.5450,37.3974
2867,L,-7.9731,-16.3642,38.7617
2868,L,-6.2154,-14.9463,39.2102
2869,L,-6.3972,-18.5619,39.4258
2870,L,-4.7513,-20.4065,40.1604
2871,L,-6.1349,-22.1294,40.4402
2872,L,-4.4300,21.7004,-23.9217
2873,L,-5.6800,19.4303,-22.5888
2874,L,-5.3197,18.8321,-21.1727
2875,L,-5.3202,-13.3529,-16.8161
2876,L,-6.8200,-11.3920,-15.7063
2877,L,-7.4974,-14.7822,-19.9441
2878,L,-10.2503,-16.3338,-20.6675
2879,L,-8.7960,-18.4324,-20.7359
2880,L,-36.0433,-6.0723,-8.6649
2881,L,-37.2477,-7.3693,-12.4650
2882,L,-36.6305,-4.7700,-9.9565
2883,L,-35.3448,4.2226,-14.5730
2884,L,-36.7184,2.0326,-17.0643
2885,L,-35.8885,2.8537,-17.7794
2886,L,-35.8233,2.4344,-21.3476
2887,L,-34.7812,3.1964,-17.9974
2888,L,-56.1133,-40.9730,-6.3224
2889,L,-58.1592,-40.6431,-7.3708
2890,L,-55.7719,-38.8874,-8.3416
2891,L,-58.6200,-21.0977,-15.5468
2892,L,-60.9504,-22.5312,-14.6158
2893,L,-61.5279,-19.8463,-15.0683
2894,L,-63.4861,-18.7698,-15.3049
2895,L,-61.1351,-17.6620,-16.0217
2896,L,-17.8496,-100.6699,-8.0079
2897,L,-17.3973,-99.7873,-11.7111
2898,L,-19.4871,-99.5813,-12.0907
2899,L,-39.2841,-85.4837,-14.4289
2900,L,-35.7900,-86.6842,-16.2334
2901,L,-39.4529,-83.8039,-14.8569
2902,L,-38.5225,-82.2473,-14.1524
2903,L,-41.5103,-80.6265,-13.6409
2904,L,-8.6404,-44.3349,6.9423
2905,L,-10.0170,-44.1755,6.0141
2906,L,-10.0617,-46.4206,5.1519
2907,L,-19.9673,-62.0503,-0.1831
2908,L,-20.7577,-58.9245,-0.6835
2909,L,-16.5532,-61.3298,-0.2154
2910,L,-13.7220,-60.1085,0.0189
2911,L,-11.6761,-62.6176,1.0769
2912,L,-58.9230,1.8640,24.2656
2913,L,-59.0059,4.7798,23.6542
2914,L,-58.6219,4.6539,25.8853
2915,L,-39.4654,-0.7082,29.7923
2916,L,-39.6599,0.3161,28.1557
2917,L,-36.3797,1.2225,29.0224
2918,L,-34.3239,3.7725,28.1694
2919,L,-34.4001,3.3919,30.1507
2920,L,-42.5322,3.2945,46.1329
2921,L,-40.6979,3.1491,43.4993
2922,L,-39.0254,4.1293,45.1600
2923,L,-39.8463,21.0541,41.1863
2924,L,-42.2707,19.8381,40.5488
2925,L,-41.2075,21.3046,38.7531
2926,L,-43.0628,21.5407,36.9263
2927,L,-41.7271,23.2153,37.4834
2928,L,-42.5194,24.9415,36.1356
2929,L,-39.7265,24.2525,37.6713
2930,L,-27.7281,27.2591,35.1397
2931,L,-28.3776,30.4061,36.3596
2932,L,-26.8073,30.5569,34.5762
2933,L,-26.0831,33.5920,34.8431
2934,L,-25.0501,30.6614,32.6813
2935,L,-41.5571,-36.5369,37.5866
2936,L,-43.6273,-36.8869,38.9193
2937,L,-42.2800,-35.0718,36.2012
2938,L,-48.3779,-24.5150,36.4326
2939,L,-47.5619,-25.4265,33.6007
2940,L,-48.9295,-24.0935,34.3934
2941,L,-49.9951,-24.5319,32.5648
2942,L,-50.4735,-23.0561,35.0871
2943,L,-44.3163,-21.1499,42.9879
2944,L,-48.2266,-19.7905,45.8166
2945,L,-46.1610,-21.1410,41.9255
2946,L,-53.9612,-13.4106,31.8471
2947,L,-55.6176,-13.2066,35.4906
2948,L,-57.4182,-11.8333,34.3964
2949,L,-60.0179,-11.5487,35.7723
2950,L,-59.0356,-10.5362,33.0319
2951,L,-60.7100,-9.8748,31.7397
2952,L,-57.9475,-10.4334,30.3322
2953,L,-56.7441,-1.0886,24.9193
2954,L,-54.8966,-2.8918,21.6959
2955,L,-57.3064,-0.7607,23.2375
2956,L,-57.7652,-0.6624,21.5514
2957,L,-20.5638,-53.4851,59.5333
2958,L,-22.7280,-55.2366,62.7092
2959,L,-22.7786,-53.4256,60.4547
2960,L,-30.4919,-47.3670,59.1100
2961,L,-32.4453,-48.7978,60.9696
2962,L,-33.9929,-48.5383,59.3536
2963,L,-36.6941,-50.0520,58.8244
2964,L,-35.3311,-48.1526,58.1448
2965,L,-34.6948,-33.6297,65.4887
2966,L,-32.7105,-34.7542,62.6708
2967,L,-34.7602,-34.6046,62.6161
2968,L,-31.0262,-38.8381,46.0829
2969,L,-31.4577,-40.1590,47.9320
2970,L,-32.0710,-41.5779,46.3578
2971,L,-34.2514,-43.3571,46.8979
2972,L,-32.9595,-42.5683,45.2311
2973,L,-34.2165,-43.5826,44.0031
2974,L,-32.0668,-41.8739,43.3446
2975,L,-38.3237,-34.6393,35.7522
2976,L,-38.3460,-37.0894,36.8093
2977,L,-39.9872,-36.7598,37.1784
2978,L,-41.9196,-38.9037,38.4421
2979,L,-8.1188,-10.7012,55.3912
2980,L,-6.2450,-13.7680,54.5206
2981,L,-7.4653,-13.9997,56.5094
2982,L,-6.4167,-26.6020,62.7534
2983,L,-7.2143,-26.9008,60.5005
2984,L,-6.1813,-29.2912,60.0451
2985,L,-6.3074,-32.0373,57.7388
2986,L,-6.0429,-31.9067,60.1766
2987,L,-11.5906,-27.3706,70.2814
2988,L,-10.2658,-27.3733,72.0370
2989,L,-9.6137,-29.8320,69.0246
2990,L,-10.6765,-41.0044,73.2243
2991,L,-8.0509,-42.1107,71.7657
2992,L,-11.0163,-41.1328,70.8845
2993,L,-12.0481,-41.0293,68.6843
2994,L,-15.0980,-41.9166,70.1684
2995,L,-15.2110,-45.6336,69.3904
2996,L,-15.4051,-44.9293,71.2523
2997,L,-18.2139,-50.1738,59.1814
2998,L,-16.8224,-50.8609,60.6423
2999,L,-18.3297,-52.2569,58.8015
3000,L,-18.7284,-54.0746,59.4926
3001,L,-22.7397,32.2221,31.7080
3002,L,-23.3400,28.9113,31.9439
3003,L,-21.1940,24.3960,48.9396
3004,L,-20.5925,26.7179,47.3834
3005,L,-21.8749,27.8115,50.4020
3006,L,-21.3027,30.6500,51.2342
3007,L,-21.6080,28.1357,52.9568
3008,L,-20.0597,1.7550,53.6126
3009,L,-19.5133,4.9262,52.8060
3010,L,-19.9706,3.5457,55.8127
3011,L,-12.9478,9.0263,61.2399
3012,L,-14.8545,10.8604,59.4273
3013,L,-12.2643,12.5052,59.7574
3014,L,-11.5203,16.0481,59.0778
3015,L,-10.4722,14.1638,61.5997
3016,L,-8.9578,15.5706,63.0600
3017,L,-9.6647,12.1107,63.6872
3018,L,-9.4671,-7.3152,58.6301
3019,L,-7.5161,-4.4982,59.2030
3020,L,-8.3515,-7.1889,56.7175
3021,L,-6.9662,-7.3048,55.2240
3022,L,-5.4360,33.1860,-8.4223
3023,L,-6.1895,31.2312,-5.9265
3024,L,-5.7020,34.2700,-6.5845
3025,L,-6.0499,39.9147,9.4970
3026,L,-5.3073,37.6909,8.3685
3027,L,-5.0306,37.7503,11.4081
3028,L,-5.9303,34.8923,12.9697
3029,L,-5.1768,37.2797,14.4600
3030,L,-7.1611,51.1177,22.0514
3031,L,-7.1597,48.6164,19.4702
3032,L,-7.5753,47.8491,22.8416
3033,L,-10.0247,28.8741,31.9838
3034,L,-11.3134,30.9400,29.7290
3035,L,-12.3318,27.6667,30.3864
3036,L,-13.5839,26.2147,28.3126
3037,L,-13.4739,24.2732,31.1658
3038,L,-13.7097,21.2696,31.3985
3039,L,-12.9255,22.5908,33.5008
3040,L,-10.6385,13.2544,48.1991
3041,L,-10.5010,12.4285,45.9624
3042,L,-9.5821,10.8765,47.8935
3043,L,-8.3357,8.6298,47.4842
3044,L,-8.6809,9.0370,49.9718
3045,L,-45.4639,29.7979,-14.0545
3046,L,-44.3713,28.1272,-14.1716
3047,L,-44.0140,30.7150,-14.9741
3048,L,-25.6055,41.2544,-10.1083
3049,L,-25.7723,38.6616,-9.7454
3050,L,-23.6879,39.8409,-11.6309
3051,L,-22.7137,38.1886,-13.6904
3052,L,-23.2605,41.0185,-14.5923
3053,L,-18.0479,55.4016,-5.4599
3054,L,-19.5049,54.7237,-8.6315
3055,L,-15.9863,55.5276,-7.9937
3056,L,-4.1789,52.1083,-22.0493
3057,L,-6.0008,53.5919,-22.8038
3058,L,-5.0775,49.9632,-22.8267
3059,L,-6.7266,47.1802,-21.6398
3060,L,-4.2796,46.3196,-24.0550
3061,L,-3.8595,43.1006,-25.0621
3062,L,-3.4771,45.1560,-23.4215
3063,L,-8.0692,36.1042,-8.7495
3064,L,-8.7820,34.3262,-10.2402
3065,L,-7.0320,33.6607,-9.6758
3066,L,-5.9912,31.0683,-9.9701
3067,L,-44.9227,5.2313,16.3117
3068,L,-46.3355,5.6360,14.2149
3069,L,-44.8594,7.5260,15.9874
3070,L,-53.3486,20.0985,18.6481
3071,L,-54.2509,17.9707,17.9817
3072,L,-54.3362,19.6883,16.5251
3073,L,-53.1925,19.4842,14.2089
3074,L,-54.2149,21.1296,14.2407
3075,L,-35.8229,34.3424,15.5829
3076,L,-36.3375,31.7466,15.6873
3077,L,-34.6461,33.4121,12.3287
3078,L,-50.7505,31.7651,-1.0550
3079,L,-51.1969,30.8644,1.5751
3080,L,-50.2695,29.8139,0.4679
3081,L,-48.0016,28.4944,2.8076
3082,L,-47.4777,29.5542,0.4118
3083,L,-44.2082,29.6161,1.4230
3084,L,-46.1890,30.3234,-1.0692
3085,L,-46.5143,33.1505,-14.1253
3086,L,-45.7549,32.1364,-12.3144
3087,L,-46.0532,30.7236,-13.3078
3088,L,-44.3532,28.7838,-11.7775
3089,L,-57.5092,-21.9660,0.5358
3090,L,-59.3476,-19.7164,0.8299
3091,L,-55.7966,-20.8156,0.3855
3092,L,-42.5875,-22.9853,3.7847
3093,L,-45.4247,-20.0820,4.2238
3094,L,-44.1212,-22.2799,1.8975
3095,L,-45.8453,-21.1192,0.1898
3096,L,-43.3191,-24.2818,-0.1456
3097,L,-35.0752,-12.4703,18.2137
3098,L,-34.5169,-15.9851,16.5429
3099,L,-34.0745,-12.7470,16.6456
3100,L,-36.2393,-6.1345,7.6605
3101,L,-35.7891,-11.0844,5.8430
3102,L,-36.5980,-10.2826,4.3276
3103,L,-38.2997,-12.4111,2.4935
3104,L,-36.9496,-9.3141,3.0027
3105,L,-37.1572,-8.8618,1.4383
3106,L,-37.1021,-5.0579,4.9382
3107,L,-28.1816,22.8223,8.4553
3108,L,-28.7451,19.5224,6.9285
3109,L,-27.9393,23.3971,6.5628
3110,L,-28.0470,23.6691,4.8090
3111,L,-27.7126,27.0227,5.6184
3112,L,-56.5933,-35.0169,42.3938
3113,L,-56.9605,-37.5909,43.4298
3114,L,-58.0026,-35.8812,41.8592
3115,L,-53.4083,-39.8468,31.2517
3116,L,-54.1965,-41.5071,32.5351
3117,L,-52.5883,-42.4696,31.1696
3118,L,-52.8952,-45.0900,29.5911
3119,L,-51.2365,-43.4973,29.5941
3120,L,-51.6849,-28.0029,18.0948
3121,L,-52.6200,-29.5595,17.2593
3122,L,-49.9812,-30.0735,17.2475
3123,L,-45.1805,-40.2587,13.7502
3124,L,-44.8355,-40.9934,16.7229
3125,L,-47.7523,-40.5049,14.4066
3126,L,-50.1527,-40.7906,15.2661
3127,L,-50.9465,-39.3619,12.6374
3128,L,-54.2748,-38.0541,11.6204
3129,L,-51.3439,-37.7294,10.7632
3130,L,-52.1330,-25.4066,0.8695
3131,L,-54.5622,-26.1954,2.2784
3132,L,-56.1674,-24.1311,1.2428
3133,L,-60.0877,-22.9444,1.6233
3134,L,-43.5547,-76.6013,11.9646
3135,L,-45.8106,-77.6751,10.8828
3136,L,-46.1856,-75.9670,12.7670
3137,L,-42.9314,-64.4009,10.1164
3138,L,-42.9167,-65.2472,9.3091
3139,L,-44.8141,-63.9591,8.9980
3140,L,-46.7815,-63.2725,7.6715
3141,L,-47.2352,-63.8209,9.2821
3142,L,-42.2431,-54.7953,22.9522
3143,L,-39.4182,-54.9403,21.3887
3144,L,-41.1977,-53.6023,20.6378
3145,L,-47.0339,-48.5502,6.0144
3146,L,-46.5764,-50.9684,6.5852
3147,L,-48.3696,-50.5481,4.7677
3148,L,-50.6067,-52.1712,4.1388
3149,L,-50.3761,-49.5870,3.4567
3150,L,-52.3218,-48.7004,2.3929
3151,L,-50.2103,-47.5693,3.1229
3152,L,-60.1215,-35.5637,4.5160
3153,L,-56.6438,-35.7211,2.9531
3154,L,-59.4520,-34.1177,2.8878
3155,L,-58.6772,-32.9930,1.3571
3156,L,-62.0633,-32.7289,2.9730
3157,L,-24.1212,-59.3304,54.0532
3158,L,-23.1126,-61.0768,52.3613
3159,L,-23.8106,-60.1999,51.5267
3160,L,-27.3921,-63.3993,39.1630
3161,L,-26.2227,-62.0407,38.3308
3162,L,-26.7472,-63.0306,35.9467
3163,L,-26.8844,-63.0800,32.9682
3164,L,-28.1016,-64.7791,34.1174
3165,L,-37.9815,-65.6911,44.0855
3166,L,-36.2689,-65.9130,43.4740
3167,L,-36.6741,-68.0385,46.0519
3168,L,-35.0035,-82.3996,29.8643
3169,L,-32.6745,-82.1282,31.6066
3170,L,-34.1757,-83.1287,28.0272
3171,L,-33.9878,-81.7677,25.7745
3172,L,-35.2503,-83.3852,24.8281
3173,L,-36.1008,-83.5912,21.9368
3174,L,-36.8403,-84.1423,23.7844
3175,L,-43.3942,-76.5919,16.3149
3176,L,-41.2303,-78.2669,15.5532
3177,L,-41.5481,-76.8295,13.4602
3178,L,-40.4509,-77.2453,10.8153
3179,L,-20.8203,-61.2739,20.2547
3180,L,-21.8613,-63.8875,17.0786
3181,L,-22.0571,-64.8462,18.9297
3182,L,-5.9714,-74.3147,19.9615
3183,L,-5.7856,-72.3085,17.7025
3184,L,-3.5158,-74.2527,18.8011
3185,L,-3.6459,-76.4815,16.7978
3186,L,-3.3613,-77.5786,19.5905
3187,L,-15.9977,-85.4802,36.8076
3188,L,-13.2016,-84.6455,35.6765
3189,L,-13.4731,-86.2710,35.9047
3190,L,-11.5852,-95.3941,17.4464
3191,L,-10.5942,-92.8999,18.2165
3192,L,-11.9100,-93.7904,13.5115
3193,L,-9.4656,-93.7460,10.9865
3194,L,-11.2634,-97.1546,10.7260
3195,L,-9.7539,-99.8046,9.4104
3196,L,-11.6361,-99.5795,11.8380
3197,L,-27.8278,-95.0509,10.1993
3198,L,-25.0082,-95.1176,8.2943
3199,L,-26.3353,-93.7338,8.1556
3200,L,-24.5829,-91.5892,6.4792
3201,L,-27.5971,-91.1574,8.0350
3202,L,-13.6985,-26.2217,46.8998
3203,L,-15.0888,-25.0709,44.7463
3204,L,-15.3217,-27.5692,44.7431
3205,L,-12.7121,-38.8380,41.1591
3206,L,-13.4172,-36.6840,39.7604
3207,L,-11.0741,-37.3788,41.0713
3208,L,-9.3486,-36.0309,41.3260
3209,L,-8.2701,-38.2238,42.6209
3210,L,-7.0515,-53.6141,46.1378
3211,L,-6.8338,-52.1686,45.4661
3212,L,-8.0424,-53.3551,44.2877
3213,L,-11.8124,-55.8846,31.6273
3214,L,-13.7854,-53.1085,33.0498
3215,L,-13.8905,-52.8032,30.9846
3216,L,-14.2695,-49.4003,30.4583
3217,L,-13.0424,-52.6600,29.3343
3218,L,-11.7846,-52.0616,28.3374
3219,L,-11.7194,-55.2000,28.0812
3220,L,-17.1846,-60.9063,23.3338
3221,L,-14.4364,-61.5831,21.7446
3222,L,-17.7806,-60.3188,21.6151
3223,L,-17.6898,-59.2962,20.0836
3224,L,-1.0909,18.0390,6.5615
3225,L,-0.7951,13.8419,5.8830
3226,L,-0.7838,14.6874,7.7027
3227,L,-0.8203,-4.6390,15.5059
3228,L,-1.5084,-4.9893,13.2375
3229,L,-1.6346,-7.7651,14.2295
3230,L,-2.4133,-10.6892,13.5379
3231,L,-1.3722,-10.7831,14.9249
3232,L,-6.0656,-6.2310,31.2402
3233,L,-4.4876,-5.6103,30.3695
3234,L,-5.1630,-9.0415,30.4427
3235,L,-0.5130,-32.5620,23.9505
3236,L,-0.1716,-29.1695,23.3333
3237,L,0.0344,-32.4843,21.4259
3238,L,0.1140,-32.0810,18.8489
3239,L,0.2747,-35.4513,19.0982
3240,L,0.5685,-37.4629,16.3546
3241,L,0.4222,-37.8784,19.5106
3242,L,-4.9458,-48.3289,19.1278
3243,L,-6.1406,-48.7158,17.2276
3244,L,-5.4564,-50.5397,16.2594
3245,L,-6.4664,-53.3407,13.5106
3246,L,-6.8680,-53.0746,15.8459
3247,L,-32.1384,21.7883,-20.8223
3248,L,-31.3781,19.9889,-20.6081
3249,L,-30.4221,20.0207,-22.0453
3250,L,-24.0740,7.0840,-14.6804
3251,L,-25.2940,7.4325,-14.8284
3252,L,-26.4516,4.1753,-13.1434
3253,L,-29.1718,1.0831,-13.3283
3254,L,-27.7567,1.0246,-12.7613
3255,L,-14.0116,0.2866,-12.0036
3256,L,-15.2104,1.4468,-12.1805
3257,L,-16.3095,-2.4261,-11.9596
3258,L,-36.6091,-12.5635,-23.0890
3259,L,-36.1246,-10.8429,-21.8966
3260,L,-35.4068,-11.0478,-25.0471
3261,L,-33.9660,-9.4044,-26.6606
3262,L,-32.3542,-11.3130,-27.2667
3263,L,-28.9823,-10.5817,-29.3119
3264,L,-30.8257,-12.7529,-27.6090
3265,L,-23.4315,-21.1848,-22.9804
3266,L,-21.6542,-19.0295,-24.4984
3267,L,-20.9418,-20.5391,-24.2209
3268,L,-21.5180,-20.9455,-26.2924
3269,L,-20.9065,-22.3195,-24.0837
3270,L,-58.9052,-9.4096,-3.0826
3271,L,-56.5569,-10.1539,-7.1007
3272,L,-56.7401,-8.2414,-5.4309
3273,L,-48.5364,-0.9501,-23.6803
3274,L,-49.0212,-3.5829,-23.8925
3275,L,-50.8440,-1.9668,-26.0288
3276,L,-54.2754,-2.0715,-26.4123
3277,L,-53.0224,-0.0751,-27.4850
3278,L,-45.5089,10.4728,-23.0795
3279,L,-46.6073,13.4996,-22.0398
3280,L,-44.9371,15.0991,-24.7466
3281,L,-37.5376,2.2927,-37.0398
3282,L,-39.4878,3.3032,-35.1692
3283,L,-40.2248,0.0451,-36.5219
3284,L,-42.5001,-0.9585,-36.4386
3285,L,-41.4940,-2.1443,-38.6017
3286,L,-42.8158,-3.9442,-40.3410
3287,L,-40.3732,-2.6415,-41.0706
3288,L,-32.9296,-3.7906,-36.6182
3289,L,-33.3303,-5.6929,-37.8062
3290,L,-33.3145,-6.0934,-35.0765
3291,L,-33.4006,-8.5611,-34.1253
3292,L,-31.8778,-7.1728,-32.6755
3293,L,-40.0574,-71.8467,0.6234
3294,L,-40.9499,-73.1545,-1.1067
3295,L,-41.0774,-69.9766,-1.7887
3296,L,-47.9644,-60.1718,-6.9842
3297,L,-45.3275,-61.5124,-5.8530
3298,L,-45.0746,-59.7287,-6.2904
3299,L,-42.2170,-60.2027,-5.9318
3300,L,-45.2057,-58.0735,-6.7531
3301,L,-58.2522,-40.0103,-14.2129
3302,L,-55.9592,-43.4571,-14.4918
3303,L,-57.2857,-41.3316,-16.3078
3304,L,-51.1144,-42.7756,-24.6051
3305,L,-51.4549,-44.2918,-22.4188
3306,L,-49.7509,-42.9573,-21.1740
3307,L,-47.9837,-43.5827,-17.4920
3308,L,-47.9826,-41.4859,-20.6182
3309,L,-46.1938,-40.5609,-19.7181
3310,L,-47.4364,-40.2383,-23.2159
3311,L,-46.6861,-20.7971,-29.7408
3312,L,-46.4761,-23.6787,-26.6574
3313,L,-45.4228,-20.4070,-27.6143
3314,L,-44.4095,-20.0721,-25.4458
3315,L,-44.2482,-17.1655,-28.6517
3316,L,-15.0738,-77.3537,11.2713
3317,L,-16.5640,-77.7489,8.7226
3318,L,-15.0615,-79.4489,9.4865
3319,L,-3.9803,-80.1756,-1.1168
3320,L,-3.5498,-77.9847,0.9859
3321,L,-5.7967,-77.6182,-0.5461
3322,L,-7.1859,-74.9588,-1.0859
3323,L,-8.2720,-77.4961,-2.7725
3324,L,-14.5429,-91.9425,-7.8753
3325,L,-12.2560,-91.0739,-8.8043
3326,L,-15.8302,-88.7772,-8.2437
3327,L,-25.9127,-70.0088,-4.3633
3328,L,-22.4972,-71.7149,-5.5170
3329,L,-24.3583,-67.7112,-6.2006
3330,L,-23.3481,-65.1367,-8.9910
3331,L,-25.9849,-63.9648,-6.8287
3332,L,-27.1637,-60.6941,-7.2380
3333,L,-28.7235,-62.8950,-6.1228
3334,L,-32.9396,-46.2834,-19.1017
3335,L,-29.4269,-46.7724,-18.8043
3336,L,-32.3326,-43.4740,-20.8097
3337,L,-31.9015,-40.7372,-22.2962
3338,L,-35.0735,-41.1691,-22.7587
3339,L,-1.9263,-11.9779,-0.0998
3340,L,-2.6439,-13.8431,-2.8362
3341,L,-2.7155,-16.3866,-2.1593
3342,L,-15.8954,-30.1441,-6.4764
3343,L,-14.2095,-27.4046,-7.2757
3344,L,-17.7572,-29.5085,-7.2679
3345,L,-19.7364,-29.0205,-7.7976
3346,L,-22.1463,-31.6096,-6.8236
3347,L,-16.7849,-42.2298,-0.4650
3348,L,-19.7036,-41.7720,0.9674
3349,L,-18.6303,-42.2440,-1.3751
3350,L,-23.8639,-35.7897,-11.1056
3351,L,-27.3189,-38.3549,-9.9721
3352,L,-27.9323,-37.0213,-11.3979
3353,L,-31.7310,-37.3100,-10.9017
3354,L,-27.8882,-35.3713,-12.9557
3355,L,-28.2185,-33.9503,-14.1719
3356,L,-24.7079,-33.0990,-13.6372
3357,L,-33.1565,-40.0571,-10.6048
3358,L,-31.4058,-37.2834,-13.3647
3359,L,-34.1772,-37.8163,-12.5025
3360,L,-34.6513,-35.5717,-14.2929
3361,L,-36.2054,-39.2176,-12.8130
3362,L,-39.3862,-11.9071,55.3687
3363,L,-41.7652,-10.2610,55.3381
3364,L,-41.5050,-10.5991,57.6501
3365,L,-37.7611,-10.2263,59.9299
3366,L,-38.7615,-8.8156,58.5955
3367,L,-35.7200,-10.0039,56.5665
3368,L,-34.1088,-10.1049,52.6198
3369,L,-33.0294,-11.2742,53.9714
3370,L,-34.3077,-25.6124,48.1546
3371,L,-35.1360,-24.7040,47.4640
3372,L,-35.7362,-23.4386,49.9472
3373,L,-37.9185,-15.8971,56.9876
3374,L,-36.2416,-17.6864,54.3633
3375,L,-37.2729,-14.4564,55.6299
3376,L,-36.8829,-13.5018,53.2450
3377,L,-26.0698,-23.8250,54.8292
3378,L,-25.9316,-25.1104,51.5018
3379,L,-28.0965,-24.1328,53.5884
3380,L,-33.7656,-24.4019,52.8819
3381,L,-31.6567,-24.7820,51.5107
3382,L,-33.1090,-25.3145,49.8876
3383,L,-33.1404,-27.0049,47.4321
3384,L,-29.2049,-15.9223,67.4197
3385,L,-28.5028,-17.6712,69.1765
3386,L,-30.2832,-18.6446,68.8542
3387,L,-30.0311,-22.9120,61.2583
3388,L,-28.9442,-22.5842,63.2821
3389,L,-27.5126,-23.2010,59.0093
3390,L,-24.9214,-23.6713,56.6884
3391,L,-30.8619,-12.3435,52.8434
3392,L,-32.6034,-12.1833,56.6893
3393,L,-32.8459,-14.4781,65.6200
3394,L,-31.6902,-13.2705,62.6280
3395,L,-30.7771,-14.3897,65.0557
3396,L,-28.6667,-14.8065,64.3441
3397,L,-21.4446,57.5823,19.6199
3398,L,-19.0323,56.5902,19.9051
3399,L,-20.8036,55.1064,22.3522
3400,L,-21.7394,49.2854,30.8451
3401,L,-19.2770,49.7214,28.0081
3402,L,-20.3722,49.3235,32.2475
3403,L,-18.9248,49.5302,33.3810
3404,L,-19.4273,46.9425,33.4174
3405,L,-28.0915,46.4592,14.8606
3406,L,-26.1369,46.6070,12.9720
3407,L,-26.4065,48.2859,15.2935
3408,L,-23.1037,52.8307,19.9706
3409,L,-23.7579,52.8534,17.0801
3410,L,-23.2344,55.4455,18.6917
3411,L,-22.5085,57.5793,16.5713
3412,L,-32.7602,36.5836,24.7792
3413,L,-33.8238,39.0430,23.6139
3414,L,-31.2852,38.1715,21.2057
3415,L,-26.8440,43.2486,16.0893
3416,L,-29.6991,42.6542,16.7341
3417,L,-28.6181,45.7858,16.7853
3418,L,-30.0574,47.1994,16.3954
3419,L,-52.1444,-8.4870,11.2202
3420,L,-50.2754,-8.1354,10.3045
3421,L,-51.7336,-6.2846,8.5632
3422,L,-55.2394,1.3253,4.8530
3423,L,-53.0991,-0.4198,5.5085
3424,L,-54.3984,2.5483,3.6288
3425,L,-53.0092,3.4976,2.6326
3426,L,-54.6178,4.9310,1.9567
3427,L,-62.8909,-10.7539,12.3232
3428,L,-61.9748,-12.2746,13.0916
3429,L,-61.4503,-10.1355,10.9720
3430,L,-56.1891,-7.1946,9.4081
3431,L,-56.9574,-9.1566,10.9691
3432,L,-54.6597,-8.7173,11.1384
3433,L,-53.2578,-9.8040,13.6186
3434,L,-49.4749,-55.7418,39.5759
3435,L,-48.8160,-56.0022,37.2164
3436,L,-49.3424,-54.2183,38.4245
3437,L,-50.4711,-49.7504,38.7878
3438,L,-49.6815,-50.8622,36.9254
3439,L,-50.7659,-49.2766,36.2545
3440,L,-51.4902,-49.3933,34.1215
3441,L,-52.8685,-48.5592,36.0533
3442,L,-43.9736,-50.4167,39.2627
3443,L,-44.3171,-52.0506,39.4650
3444,L,-45.5534,-52.0522,41.0091
3445,L,-50.4103,-54.0815,42.9412
3446,L,-49.5933,-54.7626,43.1401
3447,L,-50.2563,-55.5122,41.8967
3448,L,-49.8188,-56.9418,40.6949
3449,L,-9.1677,-71.9879,52.2647
3450,L,-10.0879,-73.9360,50.2044
3451,L,-10.7580,-72.0017,50.5568
3452,L,-14.2943,-67.6965,48.8885
3453,L,-13.9817,-70.0590,47.8260
3454,L,-15.3742,-68.6669,47.0917
3455,L,-16.1774,-69.1919,45.4033
3456,L,-16.5378,-67.1751,46.4012
3457,L,-13.3955,-58.2836,58.5959
3458,L,-12.7298,-59.0034,57.7131
3459,L,-12.5148,-61.4430,58.9053
3460,L,-9.8248,-68.9585,56.9553
3461,L,-8.7096,-67.4269,57.9659
3462,L,-8.5529,-69.8941,55.2331
3463,L,-7.5095,-70.3747,53.4884
3464,L,-10.9495,-0.3405,40.2452
3465,L,-9.7043,-1.7711,39.8068
3466,L,-11.0731,-3.3430,40.6685
3467,L,-12.4910,-10.5432,41.8892
3468,L,-11.1358,-9.0735,41.3267
3469,L,-11.6824,-11.7640,40.5659
3470,L,-10.4354,-13.1465,39.6767
3471,L,-12.1994,-14.4211,39.3415
3472,L,-6.8346,18.4406,-13.0970
3473,L,-6.5948,15.8687,-12.7482
3474,L,-6.5128,13.9724,-10.1337
3475,L,-3.5490,-0.0679,-7.5735
3476,L,-4.4886,1.6507,-8.2844
3477,L,-2.7830,-4.2406,-10.7486
3478,L,-2.3373,-7.7756,-12.7966
3479,L,-0.8026,-9.9314,-11.9382
3480,L,-35.2978,8.5927,-3.6072
3481,L,-37.0302,5.7216,-5.1685
3482,L,-35.4145,10.1537,-4.8439
3483,L,-32.5749,14.7119,-7.1508
3484,L,-35.0261,12.2667,-7.7034
3485,L,-33.4124,12.3830,-8.7321
3486,L,-33.9384,9.5833,-10.2933
3487,L,-31.8480,12.3438,-10.2096
3488,L,-47.3317,-33.1813,-7.7045
3489,L,-49.1181,-32.7878,-9.5754
3490,L,-47.6714,-30.4912,-9.2671
3491,L,-48.2386,-23.3749,-11.6920
3492,L,-48.9266,-25.6365,-12.0386
3493,L,-50.0001,-23.3544,-13.5692
3494,L,-52.5394,-22.9342,-14.8656
3495,L,-51.1086,-21.4014,-14.7742
3496,L,-26.8065,-97.3435,-6.0008
3497,L,-24.8937,-96.6055,-8.9147
3498,L,-27.0486,-95.5694,-7.6186
3499,L,-36.4413,-89.7597,-8.1356
3500,L,-33.1980,-91.2490,-9.5531
3501,L,-37.1790,-88.7585,-9.1414
3502,L,-38.1463,-87.4419,-10.7895
3503,L,-40.6882,-86.2159,-9.0666
3504,L,-12.9343,-52.9811,7.1524
3505,L,-15.0362,-53.0394,6.0490
3506,L,-17.4166,-54.7556,6.7336
3507,L,-25.9265,-61.8967,5.1300
3508,L,-24.8990,-59.2916,4.8691
3509,L,-26.0741,-62.4541,3.0311
3510,L,-24.8102,-62.6037,1.1264
3511,L,-24.7441,-65.5116,1.2249
3512,L,-57.5691,-0.3878,31.8965
3513,L,-57.5936,2.4628,32.1390
3514,L,-57.0059,1.2018,33.9896
3515,L,-50.8606,-1.4006,34.9028
3516,L,-51.4701,0.0702,33.2978
3517,L,-48.0444,-1.2497,33.1942
3518,L,-45.2376,-1.5308,31.6451
3519,L,-44.6622,-2.0571,33.7040
3520,L,-38.7757,5.1096,53.5113
3521,L,-39.4270,7.6153,51.4236
3522,L,-39.1555,8.4086,53.4969
3523,L,-36.3709,17.1357,50.6929
3524,L,-38.2997,15.6373,50.3362
3525,L,-37.4420,19.2408,48.9230
3526,L,-37.9818,20.1510,46.4556
3527,L,-36.2516,22.2218,47.7336
3528,L,-35.7632,24.5533,46.2276
3529,L,-34.4945,22.9333,48.1761
3530,L,-30.8480,18.0997,44.3925
3531,L,-31.2717,21.0005,44.2482
3532,L,-29.9542,19.9317,41.6458
3533,L,-29.2950,21.9756,38.9755
3534,L,-28.2573,19.1902,39.2150
3535,L,-39.2118,-29.2961,39.3846
3536,L,-40.1312,-28.7709,37.4413
3537,L,-41.3408,-28.3061,40.0465
3538,L,-47.3259,-25.8109,45.2282
3539,L,-45.2894,-26.2054,42.0277
3540,L,-47.5275,-25.4353,42.8723
3541,L,-47.7194,-25.5150,40.2942
3542,L,-49.8392,-24.9483,43.5833
3543,L,-38.6243,-16.7516,32.9266
3544,L,-40.4964,-18.2621,32.3587
3545,L,-39.9489,-14.9968,31.5813
3546,L,-43.9364,-9.4943,29.1079
3547,L,-42.7499,-12.2143,28.7439
3548,L,-44.4843,-11.4331,27.2511
3549,L,-46.8759,-13.4514,27.4727
3550,L,-46.4105,-11.0825,25.8222
3551,L,-48.0818,-10.9512,24.7523
3552,L,-46.8238,-8.4834,25.6601
3553,L,-54.3859,-3.3334,32.3144
3554,L,-51.7222,-4.3315,28.6944
3555,L,-55.1820,-2.5311,30.6090
3556,L,-55.7386,-2.0096,28.5419
3557,L,-20.7662,-45.8476,60.5756
3558,L,-21.7488,-47.6177,58.2778
3559,L,-21.3367,-45.5342,58.9806
3560,L,-21.4927,-41.8397,56.6238
3561,L,-22.3066,-44.6031,56.6999
3562,L,-23.2828,-43.6699,55.8396
3563,L,-25.7563,-44.8433,56.8330
3564,L,-24.3458,-42.6306,54.6413
3565,L,-42.3891,-31.9377,60.0770
3566,L,-40.9628,-33.6281,58.9172
3567,L,-42.7359,-33.4019,57.5279
3568,L,-40.7773,-33.7516,49.7465
3569,L,-40.6016,-34.7049,51.5704
3570,L,-38.0648,-34.9271,47.9262
3571,L,-35.1732,-35.5269,47.0485
3572,L,-35.1213,-34.8458,44.7128
3573,L,-33.1365,-35.0787,42.4428
3574,L,-35.7707,-33.6101,43.6707
3575,L,-39.9062,-30.0730,43.3891
3576,L,-36.9999,-31.1097,41.8664
3577,L,-38.0724,-30.1564,40.6328
3578,L,-36.9704,-30.8350,37.9196
3579,L,-9.3035,-10.0427,63.2063
3580,L,-7.8095,-12.7391,62.5995
3581,L,-7.8483,-12.2727,64.3874
3582,L,-5.9655,-15.8728,68.9558
3583,L,-5.5027,-16.2056,67.1180
3584,L,-5.7881,-18.2587,68.2490
3585,L,-6.5947,-20.9854,67.4676
3586,L,-6.1658,-20.8073,69.1254
3587,L,-12.7744,-35.9798,63.2837
3588,L,-10.9820,-36.8437,64.5209
3589,L,-13.1016,-35.9408,67.4575
3590,L,-14.0341,-34.9779,75.1205
3591,L,-12.3589,-34.6369,74.9950
3592,L,-12.9265,-36.6507,75.4473
3593,L,-11.9763,-38.4797,75.4522
3594,L,-14.8905,-39.5321,74.6929
3595,L,-16.8798,-41.8419,73.9360
3596,L,-17.1090,-40.4353,72.6705
3597,L,-19.6394,-42.2119,64.5038
3598,L,-19.5755,-43.3872,66.3829
3599,L,-20.2748,-44.8411,63.3293
3600,L,-20.0162,-46.5620,62.2657
3601,L,-26.0097,19.6069,36.6844
3602,L,-26.9921,17.0365,39.1712
3603,L,-25.3131,12.5377,42.9729
3604,L,-23.8765,14.8680,41.1631
3605,L,-23.0142,15.1826,43.2921
3606,L,-21.7708,18.2400,44.8665
3607,L,-22.9947,15.9413,46.0090
3608,L,-19.9298,-4.6601,63.3953
3609,L,-19.1139,-1.2445,64.0817
3610,L,-19.8603,-2.8834,66.1668
3611,L,-15.7671,-1.1922,69.1462
3612,L,-17.3799,0.4993,68.5842
3613,L,-15.0461,1.5136,68.2509
3614,L,-14.5360,4.1605,66.1271
3615,L,-12.7868,2.2002,68.0180
3616,L,-11.1303,2.8398,67.9065
3617,L,-11.7804,0.1144,68.3133
3618,L,-10.4712,-7.1833,65.4136
3619,L,-11.1163,-4.5198,64.4986
